0,1,2,3,4,5,6,7,8,9,10,11,12,13,14,15,16,17,18,19,20,21,22,23,24,25,26,27,28,29,30,31,32,33,34,35,36,37,38,39,40,41,42,43,44,45,46,47,48,49,50,51,52,53,54,55,56,57,58,59,60,61,62,63,64,65,66,67,68,69,70,71,72,73,74,75,76,77,78,79,80,81,82,83,84,85,86,87,88,89,90,91,92,93,94,95,96,97,98,99,100,101,102,103,104,105,106,107,108,109,110,111,112,113,114,115,116,117,118,119,120,121,122,123,124,125,126,127,128,129,130,131,132,133,134,135,136,137,138,139,140
2.0,-0.032245388,-0.54504988,-0.82233951,-1.6050845,-1.8057748,-2.0080666,-2.2339748,-2.191458,-2.0580713,-1.8808487,-1.5980847,-1.0734666,-0.60601763,-0.40062774,-0.30974032,-0.27599315,-0.16190422,0.10850521,0.30977527,0.41252896,0.53814803,0.54247379,0.42785112,0.37815942,0.36188738,0.37976272,0.45375055,0.5483923,0.67794169,0.66825595,0.4131611,0.22767328,0.27982432,0.35898388,0.40398305,0.43035215,0.40867432,0.42049766,0.42107193,0.32161806,0.22971489,0.20655718,0.22594547,0.34068889,0.44956444,0.40496562,0.30956912,0.24239092,0.17865089,0.18501601,0.33981574,0.51298385,0.47234082,0.24335581,0.082250646,0.041823061,0.04329214,0.16040296,0.26450173,0.21102713,0.22029886,0.31735332,0.31367233,0.31088657,0.38498299,0.36784817,0.2984939,0.31753582,0.32696731,0.29884615,0.3674174,0.47894802,0.51140793,0.49840732,0.49130584,0.50073549,0.49360933,0.53874692,0.63148766,0.57849716,0.53415701,0.6395139,0.67505033,0.5978203,0.48834268,0.39688329,0.42172264,0.51001168,0.55461096,0.59630145,0.57140413,0.45837937,0.44734872,0.50965739,0.53081508,0.51322441,0.46546407,0.49637166,0.60659122,0.66603659,0.62919292,0.54553078,0.54543892,0.60964795,0.59777943,0.57261331,0.60459362,0.57085274,0.48861488,0.48893631,0.51936437,0.55129762,0.61166333,0.61427183,0.55032934,0.48756962,0.41517402,0.39897417,0.53464846,0.66442392,0.63454566,0.56613755,0.47991327,0.29107729,0.10251066,0.018347409,0.043036237,0.038287591,-0.168029,-0.44347067,-0.90642467,-1.6213757,-2.3290905,-3.0498941,-3.6204134,-4.2104818,-4.043785,-3.0518127,-2.8068663,-0.87966639
2.0,-0.0033769023,-0.27926539,-0.23051899,-0.63597815,-0.89479525,-1.0231052,-1.243738,-1.4583723,-1.6778956,-1.7845295,-1.7645044,-1.6832758,-1.4631015,-1.1011968,-0.65303247,-0.31466504,-0.24303284,-0.19155775,0.0075993381,0.17111957,0.26839502,0.38436986,0.4265509,0.3859307,0.38822989,0.42239395,0.42333826,0.43359269,0.45610947,0.43919966,0.43655705,0.46542888,0.42828293,0.37433127,0.41701464,0.4561745,0.42258632,0.40604845,0.4088106,0.42823967,0.46536054,0.44482823,0.42153408,0.48424791,0.54322181,0.5206434,0.47084118,0.43934951,0.42381608,0.4258561,0.4370045,0.42708354,0.42289651,0.47238406,0.49847728,0.43833382,0.38337003,0.37689901,0.39749993,0.44167605,0.44820546,0.43624288,0.44556794,0.40543255,0.37638971,0.39297038,0.34495637,0.3201802,0.41454841,0.46103982,0.43723346,0.52133391,0.61718936,0.56498535,0.50962063,0.51103669,0.47366713,0.49245671,0.59737106,0.61846326,0.56621962,0.56608383,0.56977337,0.5436347,0.56461763,0.60378598,0.63620831,0.70423329,0.74295385,0.71302272,0.68097316,0.66055263,0.64268501,0.6494248,0.61162755,0.53082834,0.57773852,0.66311997,0.62054356,0.62037366,0.68818888,0.67205483,0.64791114,0.64524614,0.6174329,0.63524109,0.6543268,0.57725358,0.52527661,0.57458298,0.58210725,0.55662993,0.53490379,0.43343317,0.39966316,0.46514676,0.44562144,0.40829097,0.36121634,0.23516789,0.14836541,0.019923601,-0.23559562,-0.39503029,-0.4230728,-0.5264911,-0.74221489,-1.0010725,-1.3114014,-1.7089254,-2.1559694,-2.6405077,-3.2183839,-3.6516303,-3.8811976,-3.9246725,-3.1643898,-2.2283731,-1.8375444,-0.37848925
2.0,0.19598933,-0.22225797,-0.75477278,-1.4156135,-1.7758509,-2.1623265,-2.4674919,-2.3313845,-1.993476,-1.6117086,-1.0467326,-0.56431122,-0.44632491,-0.43863789,-0.15966659,0.19423495,0.32441412,0.24254557,0.24322548,0.26202309,0.22172415,0.21013775,0.30766873,0.24313951,0.20525623,0.21058426,0.24082468,0.24558373,0.21957034,0.29972267,0.22470926,0.18866165,0.22992332,0.2118637,0.21052874,0.16381227,0.17911407,0.16682414,0.16347037,0.16302269,0.17180124,0.11947176,0.1157629,0.16626581,0.081258067,0.096827935,0.13157024,0.12008102,0.12524996,0.078787697,0.082757961,0.04910717,0.05144199,0.035745714,0.035144654,0.022597695,0.015557644,0.061640769,0.11622197,0.036973554,0.04824793,0.1196818,0.2230556,0.24320077,0.19992152,0.28191388,0.27175398,0.32794157,0.41053792,0.40379204,0.40514024,0.4516399,0.45629242,0.42599354,0.44721203,0.52396905,0.48095263,0.53863633,0.50062713,0.46434948,0.54104501,0.49991739,0.51171296,0.51686415,0.51767626,0.47781267,0.49315943,0.54948977,0.50213785,0.51849238,0.49812757,0.55062718,0.4854799,0.51410374,0.57033133,0.51770394,0.49190771,0.53323822,0.57359671,0.60214356,0.65622656,0.66825087,0.67259849,0.61006351,0.65149735,0.71082234,0.74107869,0.77293093,0.76716362,0.7294727,0.72177028,0.69504926,0.76438557,0.74569972,0.7534348,0.78551619,0.69358812,0.63779932,0.46602341,0.41851871,0.51012104,0.49948172,0.46786063,0.37616482,0.314001,0.26520919,0.34446488,0.58416258,0.67476996,0.47677782,-0.16243827,-0.9350298,-1.65434,-2.43424,-3.4721695,-4.2807798,-4.6294378,-3.7941916,-2.8514681,-1.7435214
2.0,0.89486742,-0.003822158,-0.75105205,-1.3965429,-1.7378376,-2.1130203,-2.2132096,-2.2033471,-2.0241906,-1.5914581,-1.0499022,-0.57789108,-0.3131374,-0.20084404,-0.18379899,0.016525057,0.50921179,0.77751147,0.75067496,0.78843003,0.77137524,0.73257374,0.67985885,0.62183591,0.60469296,0.58129958,0.65998204,0.63413413,0.63558912,0.76050608,0.76912011,0.73457027,0.72108854,0.75040232,0.62612794,0.51689273,0.54554218,0.50588773,0.5258932,0.49186076,0.52836623,0.62282844,0.58039006,0.54824181,0.50770483,0.51204975,0.40906504,0.31038144,0.36845009,0.38137005,0.33419976,0.18130539,0.20183031,0.2933171,0.27945872,0.29958438,0.21474396,0.18456487,0.13197654,0.057778811,0.018044803,-0.071802363,0.005535548,0.066041,0.042362944,0.05525463,-0.005126899,-0.051986345,-0.015207146,-0.0094131254,0.02094263,0.092754939,0.00073659051,-0.071986495,0.070326647,0.091355005,0.028342719,0.17460518,0.28679751,0.27782832,0.31537371,0.31602348,0.36637824,0.44613065,0.41105086,0.42461382,0.4831252,0.4544008,0.46774525,0.56968959,0.54844061,0.52878176,0.63875397,0.64354817,0.62231549,0.6227605,0.57584803,0.56640109,0.56635399,0.57809064,0.61300844,0.63278994,0.59456305,0.61561681,0.72445263,0.7123046,0.67086495,0.71278444,0.66167141,0.58293314,0.58568763,0.61013419,0.69306756,0.68844189,0.61338458,0.60209334,0.42122252,0.16604014,0.14347481,0.19632701,0.16141046,0.1275313,-0.018672703,-0.23865283,-0.3706969,-0.59290109,-0.63411579,-0.44082747,-0.5180703,-0.70243851,-0.89974628,-1.4415163,-1.8616119,-2.3213812,-2.8848769,-3.530246,-4.4125149,-3.9033308,-3.5671064,-1.5363381
2.0,1.2500604,0.76080049,0.042924609,-0.62797378,-0.96345414,-1.2613352,-1.6524399,-1.8884331,-1.9352167,-1.8084291,-1.3809632,-0.91523016,-0.6879386,-0.55233001,-0.46762861,-0.27781619,0.19758491,0.48463036,0.46380903,0.44558591,0.44701164,0.46543701,0.43565881,0.39052092,0.45995236,0.47767963,0.402405,0.4116876,0.48664305,0.49826623,0.4174745,0.40432584,0.3835901,0.36485475,0.40714119,0.4018189,0.43630021,0.44604556,0.38249468,0.39645493,0.35582625,0.32053433,0.31699475,0.26518642,0.36387824,0.25711295,0.20604583,0.28445102,0.25547866,0.29578871,0.18554809,0.1979257,0.24242618,0.14958377,0.19585531,0.17424777,0.10493438,0.16805974,0.087544334,0.0072295721,0.029155503,-0.018586144,-0.013508147,0.041316274,-0.0037111579,-0.07755714,0.00796168,0.029514246,-0.032220222,0.0079204451,-0.0010957997,-0.0092523795,0.042813604,0.026635447,0.095847212,0.18646909,0.19349663,0.2321706,0.21615152,0.21874413,0.27383754,0.36847258,0.39835679,0.38672511,0.46543701,0.50378023,0.5519157,0.60225844,0.61543985,0.53329738,0.46893141,0.57146719,0.61657704,0.61019386,0.61950169,0.61448275,0.65320301,0.67716182,0.65629134,0.67303624,0.68625547,0.64572704,0.59155585,0.60972961,0.6618018,0.65629134,0.65518414,0.65868835,0.66295722,0.6955728,0.69226592,0.68079753,0.74111549,0.80160311,0.7967588,0.76606109,0.76074738,0.68414499,0.58169315,0.52905512,0.42144241,0.34909957,0.31470894,0.2325242,0.13348544,-0.030232122,-0.17074409,-0.33206303,-0.6502561,-0.744442,-0.69528246,-0.97922256,-1.3539694,-1.9520512,-2.6403864,-3.0002814,-3.8124902,-3.9733603,-5.2219464,-3.6617934
2.0,-1.1352904,-1.6495585,-1.9472632,-2.2199991,-2.2311288,-2.0922521,-1.7293219,-1.290103,-0.94188994,-0.82312476,-0.7324087,-0.52180272,-0.31112817,-0.21380845,-0.21317399,-0.2426495,-0.22692288,-0.26304964,-0.28927739,-0.2522274,-0.19129979,-0.19204268,-0.2596,-0.23447123,-0.27437437,-0.29529503,-0.22924749,-0.26376952,-0.26254614,-0.24324115,-0.26258873,-0.28281211,-0.31625388,-0.2466166,-0.30436958,-0.31012449,-0.27618391,-0.32486688,-0.30618265,-0.28448534,-0.26684474,-0.29656564,-0.26758584,-0.24842957,-0.26096316,-0.25938384,-0.24019382,-0.20223639,-0.22138468,-0.26599499,-0.25745754,-0.18040687,-0.16005668,-0.16235981,-0.1387586,-0.15928357,-0.13880313,-0.078388598,-0.082152453,-0.038429413,-0.076329979,-0.15794736,-0.07987121,-0.085900758,-0.092929648,-0.088193099,-0.083349667,-0.089289619,-0.05436259,-0.046406025,-0.046917965,-0.085750374,-0.13340358,-0.10297213,-0.080600436,-0.046057559,-0.072757535,-0.078523118,-0.11862611,-0.087084421,-0.038293966,-0.12045555,-0.12909991,-0.082157598,-0.057312236,-0.022623901,-0.012012507,-0.038770721,-0.041766716,0.0096411393,0.083350431,0.079911206,0.079650265,0.0772081,0.068522849,0.088021905,0.1181589,0.1441657,0.15446822,0.11615138,0.063057529,0.11556987,0.12672919,0.1767685,0.14772917,0.17650755,0.18768897,0.26008191,0.31247394,0.44001441,0.54689776,0.63603745,0.73409807,0.86373854,1.0193648,1.2275964,1.4165467,1.5527721,1.7327307,1.9371253,2.1642807,2.3179216,2.4959584,2.6985348,2.9418501,3.0122498,2.8173118,2.528001,2.3194763,1.8356164,1.0894994,0.5778254,0.21151325,-0.049527536,-0.29566289,-0.94136503,-1.7185517,-2.3004265,-2.6785518,-2.8565347
2.0,-0.33239107,-1.18337,-1.9714871,-2.9035809,-3.2616403,-3.3371601,-2.9288831,-2.2938667,-1.6889093,-1.2712238,-0.99532077,-0.87313844,-0.70263231,-0.24216359,0.21014473,0.3430474,0.26886873,0.27601354,0.34649153,0.32291949,0.32144519,0.3353453,0.32734402,0.38585339,0.3250548,0.35885,0.37686367,0.2643489,0.29361178,0.25909687,0.25405737,0.23826556,0.29458811,0.25034046,0.15022641,0.23101149,0.15604304,0.21490464,0.2557503,0.1810667,0.1561421,0.073689101,0.064077399,0.051430779,0.031933628,0.070514884,0.047434241,0.050919967,-0.023598174,-0.14459022,-0.034855683,-0.043516209,-0.12203468,-0.12850656,-0.18170474,-0.17863719,-0.10285669,-0.070955585,-0.16457501,-0.17309236,-0.12641349,-0.11383333,-0.050431507,-0.06112317,-0.073081605,0.015770346,-0.0055685723,0.0084231624,0.081722364,0.11801394,0.23101149,0.27354468,0.28436338,0.3166552,0.35942433,0.38255326,0.43431629,0.50227939,0.46485986,0.48776984,0.50817534,0.51848343,0.58482843,0.58301429,0.6066132,0.66842686,0.62981177,0.59084925,0.63353049,0.64318687,0.6018245,0.62747996,0.68975466,0.64866127,0.62256511,0.67918482,0.68447941,0.66976091,0.66921348,0.64790562,0.68782758,0.74641649,0.74714922,0.72966195,0.76205199,0.79441405,0.77147894,0.86290502,0.98926048,0.90029475,0.90932674,0.98163309,0.94048138,1.0168249,0.99816995,0.97465214,0.85497675,0.70581592,0.71021054,0.66921348,0.70942083,0.62971096,0.46403974,0.38569282,0.27878072,0.23578412,0.35621206,0.57383884,0.69653295,0.47578051,-0.054264772,-0.66560251,-1.3202998,-2.0225988,-2.7235852,-3.4205461,-3.7436979,-2.958705,-2.3050048,-0.81526457
2.0,0.39099063,-0.94011279,-2.0647544,-2.7825272,-2.9711166,-3.0082452,-2.9003226,-2.6337614,-2.1991274,-1.5558484,-1.0686308,-0.81551235,-0.68140212,-0.60802285,-0.27974307,0.14271947,0.35401636,0.40582078,0.34411959,0.31534128,0.37040436,0.3718433,0.39786496,0.41575367,0.37385342,0.37636941,0.36888209,0.38753238,0.43710979,0.39528425,0.42537643,0.44425037,0.38415015,0.41377563,0.38084864,0.32591406,0.35368574,0.32495018,0.28076967,0.29306476,0.32923182,0.35700185,0.26887737,0.19091778,0.24186126,0.29671553,0.23369139,0.12665732,0.13455706,0.16777161,0.13424079,0.013370635,0.056317665,0.18609506,0.060791907,-0.022401611,-0.01449257,-0.019300149,-0.03006372,-0.09217109,-0.12366613,-0.12561211,-0.10456457,-0.10384698,-0.09941152,-0.13783167,-0.11155839,-0.039391419,-0.11791577,-0.04903545,0.014915704,-0.028659799,0.044298452,0.10494487,0.1226503,0.14598326,0.23320603,0.27921241,0.27194599,0.3483733,0.43216317,0.45291348,0.46365524,0.49831447,0.53363783,0.59974451,0.63835972,0.61809558,0.62083507,0.59821069,0.62859184,0.71403142,0.77412211,0.77978372,0.707042,0.69246105,0.71442919,0.74524815,0.83453939,0.83425492,0.78212977,0.83322636,0.86636656,0.8643524,0.86405381,0.86890787,0.85958039,0.78551472,0.81419242,0.94405363,0.96303209,0.949486,0.97119791,0.96749913,0.96936001,0.94032915,0.88169038,0.73677381,0.60467595,0.54919387,0.57626706,0.66559371,0.53798046,0.39758451,0.24509921,0.060807239,-0.053877324,-0.068944572,0.069839552,-0.11306582,-0.35785499,-0.77228271,-1.2981676,-1.8341244,-2.6056171,-3.1412658,-3.7177751,-3.2253177,-2.4695914,-0.90060783
2.0,0.87644323,1.0384789,0.84314545,0.21381208,-0.35719059,-0.78867067,-0.86903582,-1.1585331,-1.4501628,-1.6098691,-1.5204829,-1.1996389,-0.88398549,-0.62112966,-0.4482112,-0.36068827,-0.25981063,0.052682394,0.35223842,0.49464596,0.55075353,0.47328753,0.44817684,0.48089039,0.44706649,0.44364359,0.45173586,0.41033516,0.41569386,0.45160924,0.4674661,0.48364574,0.45014801,0.40874054,0.42055204,0.45408964,0.4918783,0.46067377,0.39940516,0.41106651,0.40580177,0.35250563,0.37729808,0.43479976,0.3900765,0.31190976,0.30565134,0.29026308,0.26267177,0.30050652,0.2931192,0.22939952,0.24551376,0.26820502,0.26151018,0.23461313,0.16612129,0.16063123,0.21837739,0.2717474,0.18489558,0.12785876,0.14672105,0.1469234,0.20637396,0.14432578,0.16333717,0.21061286,0.15175005,0.17259424,0.16612129,0.16245787,0.17622035,0.1440524,0.18205036,0.26467987,0.25700059,0.24291285,0.29114998,0.33504228,0.35306808,0.40774307,0.40876896,0.42722887,0.47328753,0.41773147,0.48008223,0.53067938,0.50157788,0.52232169,0.55976876,0.62687065,0.6186106,0.55951473,0.55509133,0.59264239,0.64221935,0.64245664,0.62687065,0.66125363,0.66790446,0.675109,0.68106402,0.63134047,0.65662005,0.66526643,0.63575442,0.7247871,0.64519122,0.59306056,0.66245193,0.66976973,0.70366221,0.63820698,0.63335105,0.64974405,0.60345778,0.50645927,0.33372345,0.28130863,0.30386156,0.26749003,0.18596697,0.0021219416,-0.26007512,-0.43404328,-0.67858588,-0.97655726,-1.0612136,-1.2702643,-1.5642305,-1.9114842,-2.3608067,-2.8479475,-3.3546229,-3.7137516,-4.3356293,-3.9653425,-3.8193496,-2.0942555
2.0,-2.4811533,-3.0137188,-2.9497948,-2.8885771,-2.6523832,-2.0874446,-1.3914575,-0.95008193,-0.77577649,-0.64196414,-0.33773537,0.047724675,0.20121998,0.20189058,0.12859476,0.12357067,0.17396846,0.081361947,0.18899567,0.20759366,0.12068445,0.15414383,0.20250344,0.16678037,0.16775722,0.17381163,0.10316357,0.10722008,0.1585647,0.087964776,0.068763042,0.12183002,0.12094835,0.11208152,0.081099434,0.05548984,0.02014082,0.041533766,0.0328843,0.023587623,0.035019093,0.02344248,0.063493118,-0.030296867,0.0019195744,-0.023960549,-0.042555081,-0.013107209,-0.003288304,-0.054920873,-0.082976645,-0.070549308,-0.058848236,0.0023945588,0.019422227,-0.026405559,-0.002437371,0.035283763,0.059477348,0.122162,0.11044984,0.10955836,0.14587997,0.22363598,0.22940926,0.30243671,0.32847505,0.31431155,0.37471517,0.37730132,0.41705531,0.39351965,0.44807579,0.43463759,0.44538147,0.52061905,0.47283569,0.47835902,0.46228365,0.50677833,0.56582978,0.50155438,0.51237481,0.56007556,0.54334284,0.53153333,0.59553979,0.52066951,0.6173734,0.62949475,0.68199602,0.62809873,0.67159001,0.72990615,0.66586905,0.69106817,0.72060685,0.8192915,0.76287508,0.80597747,0.82023747,0.8400684,0.80778439,0.80303385,0.83201967,0.8693764,0.86289082,0.88423223,0.93145196,0.86872564,0.8549697,0.86766288,0.78494866,0.74766968,0.80895879,0.78549858,0.85549781,0.77057568,0.74109059,0.68809033,0.49770079,0.36750517,0.31715588,0.37110139,0.35401248,0.14780471,0.051643914,-0.21338744,-0.26054208,-0.12340265,-0.10697607,-0.18857284,-0.67407685,-1.2860199,-1.9020974,-2.753847,-3.8744373,-4.2967622,-3.5242551,-2.437171
2.0,-0.59395374,-1.0177873,-1.4152249,-1.8954179,-2.1569214,-2.6365788,-2.9415915,-2.8963994,-2.7370191,-2.4384777,-1.9611544,-1.4707965,-1.1485545,-1.058926,-1.000251,-0.74806855,-0.55975783,-0.53668088,-0.42510585,-0.29041476,-0.19990847,-0.093935784,-0.068674667,-0.10699281,-0.12632177,-0.20391437,-0.33649825,-0.384779,-0.27858817,-0.11376147,-0.040612149,-0.05166398,-0.10415449,-0.1865617,-0.13004583,0.01348317,0.012108857,-0.034513204,-0.092547259,-0.1634733,-0.13231347,-0.054641699,-0.016757668,0.011228923,0.079494611,0.079178967,0.022997237,0.049746938,0.071753751,0.055133772,0.098532647,0.15732913,0.12566734,0.079228803,0.11744937,0.14649789,0.15327081,0.22518835,0.32268861,0.35796071,0.33761771,0.32307564,0.31055795,0.30711498,0.34505791,0.35045974,0.31246076,0.36140563,0.46349539,0.52050652,0.46245828,0.34808125,0.41330666,0.54408183,0.59863604,0.65787623,0.68732109,0.63126796,0.5468698,0.56320063,0.57333168,0.54339317,0.64956744,0.77024641,0.765269,0.75778449,0.81043273,0.83088697,0.80658773,0.82918612,0.86832653,0.82892605,0.76935491,0.79625868,0.8212086,0.80803663,0.84542888,0.78839501,0.72832684,0.82208184,0.81263412,0.67600435,0.60211232,0.7025543,0.98786831,1.1755364,1.1182107,1.028519,0.98112121,1.0142209,1.0546101,0.97998771,0.9829806,1.0522591,1.0116155,1.0211317,1.0740773,1.095869,0.99081912,0.61934497,0.63250319,0.91242064,0.73229408,0.47570601,0.43957709,0.46302219,0.37372031,0.17597145,-0.16347264,-0.72285154,-1.3037872,-1.9166577,-2.5823515,-3.1460358,-3.1687778,-2.4185897,-1.3630509,-0.40504225,0.00088783704,0.17595753
2.0,-0.73344443,-1.446366,-1.9571712,-2.3623907,-2.3726967,-2.095428,-1.6352663,-1.1626275,-0.92027125,-0.81961903,-0.64013884,-0.28657492,-0.13115349,-0.13287517,-0.16180649,-0.17192593,-0.21482304,-0.15937525,-0.1487834,-0.16997516,-0.15891583,-0.11185159,-0.17514488,-0.16544229,-0.17858946,-0.18800852,-0.22205266,-0.21728596,-0.19716132,-0.18875848,-0.24294188,-0.23815853,-0.21365284,-0.26811475,-0.2908288,-0.2516004,-0.30254428,-0.34454371,-0.35767177,-0.36137706,-0.32241389,-0.34322179,-0.37941932,-0.40806845,-0.3874755,-0.40520204,-0.46436549,-0.43793541,-0.37842388,-0.37675345,-0.41924243,-0.32157467,-0.33203825,-0.2947519,-0.22645805,-0.25437129,-0.18865351,-0.19477575,-0.087537806,-0.13486971,-0.071977686,-0.0084675279,-0.072586088,-0.046866475,-0.02294695,-0.061660685,-0.09313623,-0.033927035,-0.065954042,-0.06594276,-0.040629474,-0.051070463,-0.0053751249,-0.038215434,-0.025560492,-0.059859567,-0.039609931,-0.052442815,-0.05695236,-0.012586995,0.019760002,0.0087786164,0.032570719,0.010600354,0.032323997,-0.0047322163,0.023977864,0.099468791,0.12957484,0.1231235,0.1853415,0.20304582,0.24027825,0.20557622,0.17886594,0.20854354,0.25734553,0.27581595,0.26157521,0.29824091,0.2933092,0.25225559,0.21161957,0.23118877,0.28013397,0.3402456,0.38872144,0.39508273,0.43391768,0.58520155,0.69530102,0.77493311,0.9905731,1.0824972,1.1104942,1.2788976,1.4841008,1.6985453,1.7727878,1.8970406,2.01952,2.2248999,2.4135438,2.5461651,2.6834981,2.8339187,2.7630107,2.3632576,2.0187511,1.664554,0.74746648,-0.048996722,-0.44319149,-0.66070674,-0.77853722,-1.2765883,-2.0503932,-2.630455,-2.8543756,-2.8415847
2.0,-1.1526845,-1.8172188,-2.1010539,-2.6077708,-2.9001118,-3.0831831,-2.891645,-2.6150932,-2.067687,-1.4337911,-1.0569764,-1.067476,-0.93650318,-0.58607899,-0.34530986,-0.27488826,-0.24693857,-0.20299822,-0.1678552,-0.1913889,-0.16125266,-0.16078973,-0.25625581,-0.17734644,-0.09437954,-0.1420655,-0.10596053,-0.0026576737,0.014609111,0.04580297,-0.016513127,-0.01560968,0.074767642,0.060596301,0.09916997,0.095280786,0.12558014,0.13629903,0.1509199,0.25790837,0.17718877,0.14453675,0.21996727,0.15626987,0.15886154,0.18123266,0.16470906,0.18119044,0.22542314,0.29605726,0.30415484,0.32400822,0.34403506,0.34464845,0.39786073,0.43166693,0.44605095,0.46206432,0.49525693,0.49687676,0.47011246,0.54952039,0.55765632,0.54391995,0.54303407,0.56791039,0.60370731,0.60285248,0.63739866,0.63283809,0.66726488,0.64166806,0.57636243,0.63007561,0.58918922,0.5575749,0.55305255,0.52268051,0.52955709,0.53760232,0.60935506,0.63160738,0.58251136,0.57358632,0.6106804,0.53156021,0.58161418,0.55788705,0.51545283,0.57694373,0.5018912,0.50494352,0.52857861,0.56637994,0.66472311,0.65418476,0.65017764,0.64354476,0.69429187,0.71450351,0.67247988,0.69390221,0.67683694,0.66964154,0.68684738,0.73659628,0.81944526,0.80223229,0.75143534,0.79663833,0.84385014,0.77705493,0.73144521,0.77307969,0.80687666,0.69199851,0.59994539,0.65128409,0.51228251,0.46635074,0.52113726,0.63973383,0.66841808,0.4356252,0.28013357,0.17966508,0.064604291,0.13051838,0.25354115,0.24071154,0.040022052,-0.35033896,-0.89403954,-1.5781675,-2.519222,-3.1592122,-3.7062343,-3.2882642,-2.486421,-1.1743398
2.0,0.4984457,-0.92086729,-1.3174935,-2.4949837,-2.8262284,-3.2852678,-3.179696,-2.8293203,-1.9824649,-1.1888066,-0.88868031,-0.64264997,-0.49406219,-0.29856173,0.15209321,0.59036727,0.74013037,0.72790941,0.73829503,0.72764671,0.63533805,0.54465273,0.52429396,0.5839667,0.62070933,0.61562926,0.61906915,0.53293055,0.49420652,0.62864263,0.64731961,0.59160764,0.61370783,0.61062241,0.65357201,0.56556632,0.45664742,0.45194262,0.40659998,0.43078863,0.3916345,0.34276494,0.34287043,0.35026185,0.38632113,0.32477234,0.26773536,0.30244731,0.25503197,0.15307225,0.13461451,0.10916643,0.068752428,0.058311083,0.015770832,-0.0035923884,-0.041770641,-0.097546879,-0.01699329,-0.0069185258,-0.13081098,-0.10482245,-0.073476285,-0.066962214,-0.025854341,-0.10839843,-0.073660075,-0.063872522,-0.12903764,-0.11999979,-0.16765535,-0.062087779,0.082324291,0.092467909,0.20066232,0.27228938,0.22412794,0.32399317,0.3706853,0.28369025,0.35559533,0.40986046,0.35979705,0.3825505,0.42090458,0.47780196,0.46053569,0.4829707,0.5210502,0.47591363,0.5391382,0.54714509,0.58880884,0.61662255,0.5963432,0.58518961,0.44206783,0.4750902,0.61247088,0.53836494,0.51831919,0.57076438,0.52303349,0.55647037,0.58747519,0.55050513,0.56912801,0.65926189,0.632606,0.52255687,0.63460065,0.74269772,0.76896422,0.72829201,0.6078609,0.61398225,0.53300609,0.34380808,0.29612059,0.36994765,0.35198236,0.3145804,0.33570676,0.20541225,0.13791654,0.088785976,0.19626592,0.50924505,0.44436865,0.16554569,-0.13613034,-0.74409157,-1.2697805,-2.0039196,-2.8597293,-3.6249108,-4.2813432,-2.8717239,-2.9435616,-0.3461675
2.0,-0.9828303,-1.6062071,-1.9582192,-2.2751287,-2.3033436,-2.0840935,-1.7577657,-1.4229304,-1.0853652,-0.99030838,-0.85818536,-0.53242874,-0.25360045,-0.23341495,-0.26789283,-0.26622878,-0.23703369,-0.23751299,-0.19155124,-0.17474594,-0.23157964,-0.25363914,-0.22183054,-0.18864543,-0.25869812,-0.23971218,-0.23997329,-0.28116351,-0.29445308,-0.21141699,-0.28172497,-0.27146493,-0.25868088,-0.32136019,-0.36036124,-0.36320286,-0.38971589,-0.41550833,-0.40922381,-0.3823094,-0.41661576,-0.43312899,-0.45383601,-0.45813619,-0.46404669,-0.45835627,-0.49034621,-0.54850865,-0.52913368,-0.48307762,-0.46800997,-0.45171292,-0.41743133,-0.41124167,-0.35618266,-0.32023029,-0.29344353,-0.28351533,-0.23260705,-0.19816649,-0.15132483,-0.10139866,-0.087512261,-0.10903099,-0.06917334,-0.021837579,-0.014727788,-0.0028632847,0.019261556,-0.0076687387,-0.048134385,-0.042222933,-0.039752545,-0.097511368,-0.040588569,0.034028484,0.0037311476,-0.019896811,-0.023527855,0.0081899986,0.019516435,0.01603821,-0.040506607,0.047085301,0.090111286,0.044719589,0.035635829,0.059904129,0.028695354,0.049045601,0.035133536,0.035856482,0.10568705,0.1718079,0.18704029,0.17928159,0.20677606,0.16783183,0.1762023,0.15509698,0.28090138,0.25168522,0.20895927,0.26824158,0.33439146,0.33245716,0.41945172,0.47942301,0.61179113,0.73414755,0.87066543,0.99717867,1.0318848,1.1266891,1.3256075,1.5004765,1.6848298,1.8422878,1.9297328,2.1448252,2.3843865,2.5497528,2.6730231,2.9247968,2.9122151,2.768674,2.4390764,2.2701985,2.0005046,1.1825627,0.49887182,0.13166951,-0.067482731,-0.3561862,-1.0084518,-1.6295741,-1.9762372,-2.0272953,-1.7917172,-1.4522339
2.0,-1.0347759,-2.2106486,-2.6288929,-2.95628,-2.8061165,-2.9121773,-2.794878,-2.5222843,-1.9292399,-1.3524124,-1.1854774,-1.3315472,-1.2363008,-0.78934252,-0.47795869,-0.3115649,-0.24414606,-0.29107736,-0.30864598,-0.32803343,-0.25364997,-0.23821833,-0.17003705,-0.22911382,-0.27941756,-0.21395054,-0.25432139,-0.22117715,-0.20875819,-0.22602728,-0.22879099,-0.23077147,-0.26948106,-0.16209048,-0.015922401,-0.14283627,-0.24983018,-0.24915636,-0.28790522,-0.23436883,-0.22976636,-0.19249963,-0.22972456,-0.28778102,-0.2037221,-0.27176465,-0.32286979,-0.24950634,-0.24634493,-0.22071162,-0.1774387,-0.17512148,-0.2967674,-0.32003872,-0.18037032,-0.17181147,-0.1890911,-0.27179412,-0.33942903,-0.21975069,-0.11687031,-0.090735036,0.02313307,0.056179843,-0.042004742,0.013728518,0.14144934,0.1466916,0.18021688,0.27378955,0.37543978,0.36797615,0.42101305,0.52728837,0.47601411,0.47918593,0.45018989,0.43990004,0.54647623,0.67195661,0.73770669,0.73163332,0.74526997,0.80232768,0.85326457,0.84265557,0.74391443,0.62511255,0.53111491,0.65078802,0.78991604,0.79796519,0.81159826,0.73239993,0.76358581,0.91316329,0.96555166,0.99794538,0.99500336,0.88327173,0.90102863,0.98079587,1.0155419,1.0512317,1.0067486,1.1232045,1.2333306,1.2922793,1.3597332,1.2313111,1.2306827,1.2543573,1.0892696,1.1508485,1.2444752,1.2426935,1.1557352,0.99030474,0.96478724,1.0619917,1.1057414,0.98433275,0.84127327,0.78982735,0.67301277,0.57096195,0.74865357,0.85967658,0.61155889,0.24348016,-0.25354241,-0.78104412,-1.1801064,-1.7536923,-2.4205363,-2.6352522,-2.3513128,-1.3063541,-0.42419848,0.65589079
2.0,0.80452689,-0.007744105,-1.0137682,-1.8787144,-2.2236498,-2.423541,-2.5208118,-2.557059,-2.4802482,-2.1496836,-1.6555349,-1.1839013,-0.81899962,-0.61784078,-0.52254732,-0.30011644,0.050792503,0.27064105,0.3113627,0.31108427,0.32211099,0.35695148,0.36610806,0.31696635,0.29224807,0.30848176,0.3370221,0.3725313,0.34415795,0.28287913,0.33825355,0.37496264,0.28752247,0.27757774,0.25739169,0.30494028,0.36340298,0.24278392,0.25486864,0.28274542,0.27783017,0.251623,0.15141507,0.15687676,0.16128061,0.17205425,0.16848759,0.13395404,0.14096553,0.12241888,0.11832128,0.1114131,0.050321063,0.05876561,0.056079862,-0.01135276,0.041964356,0.10485716,0.092611628,0.077976494,0.065995014,0.13697851,0.20243953,0.15938169,0.19783484,0.23739929,0.21773754,0.27213028,0.30600907,0.35700213,0.41872475,0.42765158,0.45039097,0.46262881,0.47641615,0.49382145,0.46310569,0.52334081,0.57364959,0.49937008,0.52611885,0.57777559,0.56788871,0.55346585,0.56547674,0.59618961,0.58037353,0.58380613,0.61477184,0.61500756,0.64530831,0.65060023,0.61385593,0.659468,0.6484492,0.56614575,0.62418151,0.66976612,0.61734063,0.63122959,0.61400138,0.59775472,0.62085159,0.65949435,0.72700797,0.711295,0.73672849,0.73391506,0.71688322,0.77009098,0.74954602,0.78392142,0.82153039,0.72991761,0.6519664,0.56373756,0.53296259,0.68048522,0.70627319,0.5978013,0.54503718,0.46846927,0.37273144,0.31237742,0.39824834,0.63371806,0.61483915,0.2384473,-0.25908399,-0.8732116,-1.5024029,-2.2425651,-3.0418875,-3.7474493,-3.8927613,-3.450071,-2.8347482,-1.4923875,-0.93109421,-0.1876146
2.0,-0.71257478,-1.6856843,-1.9358052,-2.5890477,-2.8897904,-2.8857942,-2.7108816,-2.3456023,-1.9285811,-1.3804168,-0.81936267,-0.54877139,-0.43699299,-0.27385851,-0.019807122,0.30001196,0.39089283,0.4142421,0.49179526,0.42356319,0.45691869,0.52805908,0.45982683,0.41506733,0.37221952,0.40900693,0.48978599,0.49155365,0.5085638,0.50742196,0.48189753,0.4412607,0.39042379,0.43885729,0.5031683,0.47744375,0.42914433,0.41186695,0.40430501,0.38033757,0.39750191,0.41379797,0.35873843,0.37823697,0.44426828,0.38466909,0.28301558,0.25467254,0.28760267,0.31095092,0.32626712,0.34150449,0.2939185,0.26797993,0.26553526,0.21353917,0.22493128,0.24794472,0.16669859,0.12325132,0.14869898,0.12318176,0.10672855,0.12479626,0.10871034,0.11002933,0.14166235,0.17451023,0.22374578,0.22431647,0.18128998,0.19985532,0.20397304,0.19281999,0.30894461,0.39816809,0.38829503,0.40785842,0.45120504,0.51028779,0.49896785,0.49666121,0.57099944,0.53303534,0.53378419,0.60126049,0.5555963,0.57926398,0.6738724,0.65184069,0.54330071,0.48860334,0.54158435,0.60224825,0.64391221,0.63665186,0.61318358,0.71615924,0.74547729,0.67216359,0.70668524,0.73681873,0.73263733,0.64268921,0.55213177,0.65089307,0.65961361,0.61404176,0.7067429,0.72539222,0.68150833,0.67508146,0.64299916,0.57525963,0.50944619,0.46045743,0.4154935,0.41402635,0.45026691,0.43363833,0.38870064,0.33144539,0.22859354,0.12469006,0.12462349,0.27772614,0.29140921,0.029143083,-0.25360492,-0.6187517,-1.2461529,-1.8306157,-2.337857,-3.0103608,-3.4438467,-3.6949745,-3.3636633,-2.3126147,-1.8021202,-0.3349239
2.0,-0.16309261,-1.1107048,-2.0518539,-2.4211827,-2.5465114,-2.8063955,-2.9665248,-2.834229,-2.4955663,-2.0005068,-1.4664117,-1.1001161,-0.94122664,-0.92224005,-0.86778002,-0.54180725,-0.13478328,0.097902927,0.13541586,0.07863894,0.11974016,0.14434267,0.14617948,0.18879189,0.21909341,0.19062299,0.083850685,0.13026616,0.18820997,0.18407462,0.23957967,0.18703488,0.14644481,0.18955959,0.18715948,0.14775204,0.16095231,0.16221723,0.11237348,0.16983792,0.19013304,0.15478789,0.20334593,0.20062587,0.16305596,0.13959676,0.081656201,0.02596837,0.06824344,0.11819928,0.066193067,0.081914894,0.14097503,0.091566335,0.058203344,0.077159287,0.061005989,0.049261591,0.012007417,0.0041952204,0.041875891,0.056615362,0.078702558,0.048331537,0.049355826,0.082584805,0.051501853,0.076615766,0.13331835,0.13397616,0.16792235,0.23683905,0.17673846,0.15799166,0.25417381,0.21916247,0.2737412,0.34905108,0.31232347,0.33833261,0.36634811,0.47550832,0.53296052,0.47774183,0.54302542,0.59726642,0.57403746,0.63556641,0.66612489,0.65629091,0.65317352,0.63896491,0.70681784,0.74462403,0.72644017,0.75571315,0.78527042,0.84366721,0.86538139,0.78379353,0.81994815,0.86151227,0.83697773,0.88146283,0.86264544,0.85745773,0.93531319,0.95224318,0.90684435,0.94677351,0.98181482,0.91952688,0.96439591,1.0027294,0.96755767,0.92900113,0.82450553,0.77635464,0.79509097,0.85396505,0.86897066,0.78525443,0.72122424,0.63407019,0.47094711,0.36113096,0.52826408,0.73233799,0.64414693,0.4483657,0.15612579,-0.37352837,-1.0520724,-1.858637,-2.6928367,-3.3633455,-3.5753318,-2.9481784,-2.0135895,-0.84451256
2.0,-0.8980667,-1.5286207,-1.7170011,-2.1436405,-2.325634,-2.3800381,-2.3502611,-2.1859608,-1.8944102,-1.4455971,-1.0242328,-0.72006875,-0.54664255,-0.44926129,-0.30975949,-0.12255208,0.087356537,0.24685042,0.24381997,0.15281274,0.12751218,0.15384109,0.1782889,0.22943641,0.27273451,0.25139186,0.21239926,0.22314202,0.25880207,0.2621586,0.24678571,0.26192813,0.28302276,0.28133575,0.31503048,0.35050524,0.31262726,0.29561104,0.33221472,0.32981852,0.26328799,0.20678382,0.23992219,0.26751064,0.30946925,0.39325152,0.31505929,0.24474808,0.28227618,0.22839692,0.21600048,0.2265965,0.19623504,0.24043782,0.26612547,0.26600734,0.23313216,0.17995749,0.19714141,0.16813945,0.15528407,0.23656781,0.26645226,0.26433196,0.26145307,0.24610256,0.23379902,0.20102437,0.21916581,0.3147915,0.41892014,0.47213875,0.44742053,0.44540341,0.49106666,0.47772478,0.4685593,0.56230753,0.63073602,0.62497602,0.60813313,0.55525699,0.57814641,0.64182013,0.61220201,0.62642069,0.63267286,0.58553251,0.57620326,0.54028806,0.57358655,0.65582632,0.65856761,0.68067533,0.69768339,0.65717516,0.60317875,0.5711963,0.5969003,0.60493547,0.61391177,0.67083425,0.68349353,0.6589531,0.60824804,0.60706111,0.65115569,0.5854815,0.60483142,0.696073,0.66125963,0.71363511,0.77441003,0.68384992,0.57979947,0.50065448,0.4946243,0.54165756,0.66505767,0.82083292,0.78188054,0.70877156,0.66162708,0.49673926,0.38509412,0.35706984,0.35538194,0.35355556,0.13645952,-0.29511356,-0.83421217,-1.4200554,-2.0208082,-2.6664917,-3.2885886,-3.9425381,-3.911512,-3.1693371,-2.750105,-1.2564268
2.0,0.36318269,-0.69663175,-1.3936127,-1.922171,-2.1746822,-2.4599625,-2.5643256,-2.5264599,-2.1189241,-1.4966747,-0.97241458,-0.58759458,-0.4866123,-0.4394606,-0.25648856,0.16760321,0.53745717,0.50607907,0.46222431,0.52826913,0.50202909,0.48207824,0.50304911,0.53944124,0.5710207,0.47086293,0.45183135,0.53745471,0.54633151,0.55533399,0.4823947,0.46711353,0.50567765,0.47633118,0.4986892,0.50509561,0.48047764,0.38126451,0.38122185,0.38147293,0.26807813,0.38508229,0.34398377,0.24258013,0.32764309,0.29587838,0.33281315,0.29232429,0.17930393,0.15240235,0.13480101,0.13788081,0.12156308,0.16977757,0.063434862,-0.017644025,0.065565865,-0.013390106,0.025581867,0.067517075,0.011497885,0.047777711,0.04345732,0.064377788,0.040730948,0.038466543,0.13332761,0.10789505,0.043563885,0.085862255,0.14244128,0.17308676,0.23959245,0.27246231,0.23631318,0.21930829,0.24716766,0.32794482,0.43924817,0.42187443,0.37571705,0.51165626,0.52390733,0.48604189,0.54633151,0.45191263,0.44624081,0.49453505,0.47583793,0.47524473,0.43315227,0.47668458,0.56096313,0.66611419,0.6300028,0.52329846,0.58712455,0.56061794,0.56461991,0.54770671,0.53759137,0.63752108,0.57696714,0.62005536,0.60089067,0.56337315,0.69021285,0.64726666,0.63579244,0.61188291,0.61822937,0.72458067,0.72948032,0.69978488,0.62339947,0.64292845,0.59442383,0.41718065,0.42700835,0.44288938,0.45044707,0.54688501,0.49030047,0.33583271,0.28324864,0.17664478,0.081494139,0.29419071,0.42001578,0.12738348,-0.23547816,-0.73877435,-1.3845438,-2.2081879,-2.8380134,-3.5724283,-4.3328784,-3.7861645,-3.7441579,-1.8445309
2.0,0.12126624,-0.66996002,-1.4943889,-2.2245762,-2.38636,-2.4076406,-2.3349439,-2.317415,-2.1357824,-1.7292405,-1.3383713,-0.87606986,-0.58927557,-0.46659307,-0.39217299,-0.30304699,0.014253838,0.31608498,0.44264755,0.45378111,0.37585418,0.36597018,0.41283488,0.44158136,0.46820081,0.47768936,0.48801757,0.52246692,0.52258486,0.48667862,0.46071683,0.46723841,0.52489799,0.54873242,0.52324898,0.51163442,0.50953108,0.52806142,0.5113497,0.44973683,0.47768936,0.52331597,0.43661161,0.39006596,0.46568052,0.49466189,0.42097954,0.32905316,0.35708747,0.41608243,0.37585418,0.35472309,0.38224479,0.39636095,0.36679681,0.35888165,0.38266321,0.33729827,0.34051683,0.35182485,0.27401901,0.26509133,0.30648019,0.3407312,0.30793895,0.24007395,0.27903751,0.28900156,0.22670086,0.2089143,0.25704648,0.33240438,0.34134312,0.31139436,0.28476693,0.27401901,0.31479667,0.34757691,0.3727677,0.37283715,0.37585418,0.41043626,0.41066394,0.50046254,0.51429791,0.47768936,0.59991462,0.58026215,0.59918881,0.66119976,0.56255201,0.62003434,0.67115526,0.64376986,0.71964996,0.71530477,0.66256415,0.69424042,0.67994761,0.6494631,0.71530477,0.75272002,0.74268019,0.76191986,0.76516985,0.76622236,0.76004846,0.72351004,0.76357772,0.77302043,0.68135971,0.59524333,0.43463243,0.3312727,0.37403093,0.40979924,0.45540939,0.43648684,0.30825483,0.20733559,0.1552113,0.017334524,-0.099496756,0.055759875,0.093696507,-0.16726675,-0.39895629,-0.81538327,-1.4702585,-2.0749155,-2.6622286,-3.2586522,-3.7343647,-3.8890757,-3.2700551,-2.3397505,-1.4483028,-0.55589223,-0.66849481,-0.16011561
2.0,0.95086515,0.34636422,-0.40680964,-1.1618591,-1.6543863,-2.266043,-2.6357366,-2.6165598,-2.4231334,-1.9676792,-1.3502953,-0.82426448,-0.54742941,-0.50607298,-0.48457442,-0.29624078,-0.032789216,0.19854265,0.40730106,0.47672172,0.39697932,0.37450632,0.40312932,0.41589253,0.46584102,0.4722656,0.44148986,0.46042771,0.43251197,0.38778878,0.43798345,0.43631742,0.36516075,0.38824602,0.40709865,0.38148873,0.44527391,0.4688362,0.39996761,0.39826261,0.35784815,0.28318131,0.31289201,0.32346151,0.28681875,0.27367443,0.29910968,0.27976834,0.23422111,0.32126982,0.29565231,0.16968495,0.23822362,0.23768943,0.099749766,0.05613426,0.1135254,0.17606319,0.13106075,0.087600171,0.12059451,0.11707948,0.073523771,0.027574317,0.015555215,0.013205078,0.010132063,0.046517708,0.051879954,0.065647858,0.1135254,0.10123246,0.097843584,0.12956293,0.16155834,0.20978093,0.24057995,0.30341957,0.40690681,0.4091139,0.40021023,0.50326961,0.52693591,0.49502672,0.59200526,0.6589018,0.62891987,0.64336314,0.59732189,0.56624093,0.65533557,0.57959091,0.51978823,0.61781609,0.56985435,0.53663317,0.6304252,0.70859944,0.71162522,0.67107118,0.69705215,0.6625555,0.61201662,0.6338256,0.5709672,0.58488279,0.71952145,0.77419068,0.820693,0.84680443,0.74507946,0.66349648,0.69168856,0.68832346,0.6315268,0.59849439,0.51183435,0.41685166,0.41176928,0.4211863,0.48796353,0.52923285,0.41638234,0.34943453,0.28449113,0.074071093,-0.026031223,0.074738797,0.052328735,-0.20267231,-0.6056906,-1.0615232,-1.5967471,-2.3285477,-2.8501312,-3.6446267,-4.21258,-3.7953689,-3.7113807,-1.6272901
2.0,-0.82973167,-1.1877027,-1.2474823,-1.5851171,-1.9620667,-2.2176785,-2.3069939,-2.2801037,-2.1200478,-1.7054949,-1.1518737,-0.68561495,-0.49626025,-0.48443236,-0.3894853,-0.19813561,0.057293747,0.23007682,0.22905524,0.26953247,0.28510815,0.2299927,0.27797334,0.32240886,0.37832206,0.47759831,0.46332963,0.4060268,0.3631936,0.27387549,0.24206094,0.33858303,0.45590673,0.52842274,0.47073572,0.31147729,0.24910169,0.21939792,0.30573031,0.55867756,0.5519007,0.30922364,0.093759476,-0.049708127,0.02418889,0.16554296,0.23085878,0.39753216,0.57961273,0.53776524,0.32840168,0.21481699,0.30465908,0.448668,0.51078471,0.49778444,0.41938827,0.30980425,0.32316248,0.46927322,0.50234318,0.35805684,0.26697079,0.30638796,0.36725902,0.40850614,0.43952425,0.50368438,0.53253375,0.4757112,0.4921346,0.54061572,0.53085948,0.52176812,0.49300796,0.52587385,0.60111714,0.65791497,0.72060414,0.60858525,0.49742041,0.58626735,0.55493459,0.45567924,0.50627915,0.57665609,0.61435745,0.64396896,0.66215428,0.64036402,0.53553418,0.42520922,0.41301262,0.47470457,0.51414969,0.50748306,0.49319596,0.48075489,0.45531741,0.45051922,0.50086316,0.56410808,0.68056991,0.81548032,0.7200362,0.43575265,0.22836503,0.22028333,0.42163773,0.63514852,0.72481319,0.68704975,0.52058173,0.43436237,0.47459387,0.47123843,0.47110743,0.48988175,0.46293954,0.52317729,0.63695531,0.61870999,0.58932672,0.43340631,0.036317862,-0.092109497,0.071127887,0.025608279,-0.21580432,-0.51663763,-0.95400699,-1.4035562,-1.8915779,-2.6031499,-3.3514158,-4.0116086,-4.031605,-3.4153619,-2.9420907,-1.5690186
2.0,-0.15723694,-1.0486816,-1.6979821,-2.3319692,-2.5897262,-2.5744404,-2.4897693,-2.3576054,-2.1658834,-1.799185,-1.2526024,-0.71410898,-0.43365617,-0.4043702,-0.31066554,0.0010897654,0.32188973,0.4614727,0.46024112,0.42620536,0.45088537,0.51762981,0.51873602,0.50944563,0.50616922,0.44867592,0.43608517,0.48860439,0.52459717,0.546228,0.51480049,0.45467421,0.46931332,0.49663076,0.46405566,0.48781223,0.52459717,0.48077659,0.47162433,0.45706558,0.41402948,0.4454471,0.42518059,0.36794478,0.41402948,0.44333937,0.41087998,0.42531263,0.43245742,0.37574647,0.35150607,0.35733045,0.30346178,0.24993076,0.27209755,0.3116322,0.26660588,0.19561607,0.22603761,0.27742323,0.26660588,0.25342141,0.23142537,0.20872822,0.22974999,0.2479051,0.2581653,0.30110947,0.30346178,0.25322469,0.28055256,0.36359334,0.35874563,0.36635133,0.46243215,0.44629601,0.39560153,0.52828548,0.62714462,0.57780113,0.56145307,0.58991212,0.62214415,0.66876735,0.67202076,0.62690981,0.627844,0.69670826,0.70887666,0.62609263,0.57606443,0.62016008,0.67202076,0.67614274,0.66871632,0.67705579,0.69044871,0.6713562,0.62061478,0.63161863,0.69044871,0.67564475,0.61421856,0.60208594,0.63516486,0.65689507,0.64191865,0.63726243,0.63516486,0.60782297,0.5818169,0.51280327,0.41402948,0.38188172,0.36239612,0.33727626,0.35874563,0.3959099,0.36299362,0.21227694,0.11918229,0.11355682,-0.0059556298,-0.022287131,0.082326396,-0.07350907,-0.37167011,-0.68285971,-1.226058,-1.8397575,-2.2402536,-2.5631128,-3.0872808,-3.5663363,-3.5527949,-3.1237261,-2.2580231,-1.3006325,-0.78260747,0.12208244
2.0,-0.79563068,-1.3339586,-1.3963518,-1.9075847,-2.1438741,-2.3553148,-2.1016467,-1.8439422,-1.7428545,-1.4607007,-1.0634639,-0.81012949,-0.6082955,-0.20964788,0.19422375,0.19518585,-0.048401297,-0.1725909,-0.070164397,0.10269638,0.1446052,0.021955204,0.033526918,0.11249662,0.086263346,0.10397589,0.11546925,0.19875169,0.21829673,0.083199127,0.057905355,0.018300671,0.054358449,0.17388751,0.067627811,0.038837159,0.0017970583,0.068800402,0.1402189,0.023807744,0.045458344,0.034065776,0.041174805,0.15967539,0.18336279,0.22506919,0.18213964,0.061584135,0.078390412,0.087982859,0.13528161,0.093813671,-0.07875319,0.00084637722,0.079026627,-0.0048829247,0.065109906,0.16006038,0.10974301,0.059507991,0.14884651,0.11111426,0.060094304,0.073307631,0.10843461,0.19765642,0.19127632,0.2203169,0.24147536,0.24292219,0.21265089,0.33644704,0.37992753,0.29646226,0.38249486,0.37847566,0.4878751,0.53774149,0.52518144,0.57266096,0.57728115,0.61117553,0.5882408,0.63178003,0.71325672,0.66666961,0.70974002,0.82817521,0.77949579,0.67681007,0.63946535,0.59321794,0.56003417,0.71591687,0.90871694,0.8281946,0.72857197,0.74985581,0.747575,0.8290881,0.87463305,0.78936551,0.73561808,0.78362771,0.85669255,0.83576387,0.84201918,0.93603612,0.95327036,0.96680821,0.96985061,0.98241922,0.98614712,1.0332911,1.1152505,1.0713771,1.0258068,0.98455621,0.91064161,0.8046509,0.83704497,0.87997443,0.77443663,0.70650782,0.58515891,0.36686129,0.0549673,-0.32001014,-0.44804899,-0.6190513,-0.93035901,-1.2390961,-1.7822641,-2.2711186,-2.6807612,-2.9945838,-3.7923977,-3.7029947,-3.602402,-1.9786046
2.0,-0.040954364,-0.39396759,-0.74795896,-1.1320251,-1.1635506,-1.0269675,-0.77725314,-0.4124421,-0.22969014,-0.2051517,-0.014699581,0.22620751,0.31271018,0.26271839,0.26890525,0.27735027,0.22457371,0.26662053,0.28655302,0.2937412,0.27450114,0.23349797,0.25580379,0.27710928,0.30373828,0.24228589,0.26069249,0.22751399,0.24205169,0.24196436,0.2496533,0.2381328,0.16402024,0.17202007,0.16048994,0.13785568,0.1499309,0.13497058,0.11477549,0.089187723,0.057491531,0.053611576,0.0547473,0.056801748,0.033104251,-0.022141453,-0.017753124,0.0087864438,0.032201203,-0.0015190724,-0.016768815,0.030159923,0.065895478,0.02650915,0.076726848,0.11115047,0.13736155,0.10200363,0.17700346,0.20454037,0.24005661,0.30246827,0.286318,0.3132132,0.31567455,0.35501606,0.33847454,0.33504418,0.3492727,0.35401138,0.39179426,0.37606837,0.37875902,0.42650044,0.37914328,0.36845396,0.37801393,0.37225469,0.39901393,0.43630114,0.42979451,0.4009661,0.43512784,0.46437685,0.45537171,0.44396049,0.48586708,0.51802079,0.5103641,0.48585661,0.52615094,0.52271031,0.51867857,0.56737172,0.61060147,0.6113784,0.55882927,0.61138363,0.62275015,0.58111198,0.63069915,0.6754576,0.62288339,0.66154926,0.63632689,0.62679844,0.58855073,0.62312894,0.65247816,0.60552079,0.59624022,0.64875244,0.65405209,0.61742194,0.63079146,0.65216473,0.62973047,0.61200831,0.63821514,0.71628346,0.72042832,0.83260083,0.87490848,0.56320827,0.11499328,-0.16265053,-0.25346784,-0.29771272,-0.44868055,-1.0328473,-1.617594,-2.2370876,-3.0593033,-3.5495612,-3.5805326,-3.5237033,-3.62716,-3.8067848,-3.8848405,-3.8146188
2.0,-0.65666958,-1.1872677,-1.2823869,-1.8532843,-2.0535611,-2.1913161,-2.0815572,-1.8420369,-1.5421298,-1.0745932,-0.70301785,-0.56819174,-0.47912728,-0.24968973,0.090941004,0.37310594,0.39605659,0.38448226,0.46554458,0.37747023,0.40707804,0.52683672,0.46809467,0.4562614,0.42521439,0.40131898,0.43779241,0.43914561,0.43917429,0.43675755,0.46539293,0.46719831,0.42632705,0.40472879,0.43432076,0.47867252,0.44540259,0.45819997,0.46474741,0.40393644,0.43295068,0.42908948,0.38335482,0.39689082,0.3830007,0.37006394,0.40017666,0.41560881,0.42907478,0.38377865,0.3373938,0.38412063,0.37195899,0.33355316,0.30345016,0.26556922,0.30219381,0.35118389,0.33461754,0.26143986,0.27096702,0.34247364,0.32424713,0.2773966,0.26793135,0.31013523,0.3100517,0.24955185,0.2755784,0.30052139,0.27680347,0.36411458,0.37605224,0.30214902,0.36362581,0.3257613,0.29308788,0.40167534,0.38096566,0.33313644,0.4058903,0.49867039,0.57142549,0.59380968,0.59327734,0.61426143,0.56824703,0.5357802,0.57820874,0.63711486,0.70887349,0.73242209,0.72472561,0.7005268,0.67065816,0.58838453,0.51862714,0.61176125,0.65839558,0.68133936,0.70844672,0.61408943,0.61095273,0.66783258,0.69586021,0.74763181,0.78382743,0.78495325,0.76383813,0.79080908,0.82628871,0.78206319,0.64464502,0.45682182,0.37123664,0.4379484,0.47660507,0.43209841,0.34798453,0.2009866,0.039160985,-0.15162206,-0.33247305,-0.40195868,-0.52865517,-0.80485154,-1.0587122,-1.3596553,-1.8701842,-2.4484199,-2.9453923,-3.4181879,-3.8007458,-3.9696339,-3.5137546,-2.5339791,-1.486141,-0.46269413,-0.34019571,0.2257076
2.0,-2.4652502,-2.8682231,-2.4347856,-2.7457884,-2.4798316,-2.3954344,-1.8233236,-1.2720265,-0.92053202,-0.65565251,-0.64137705,-0.57901877,-0.33537718,0.047169213,0.32532427,0.34054831,0.32858285,0.37686759,0.34130068,0.32949017,0.35204556,0.36278146,0.37994318,0.39455427,0.39675998,0.37251107,0.40656821,0.42973792,0.35512506,0.33723751,0.37457402,0.35722666,0.37563561,0.39411723,0.37169866,0.3739498,0.35987639,0.35275329,0.35829262,0.35646044,0.35236304,0.3000856,0.27247978,0.30629234,0.26706268,0.24616575,0.25623915,0.18787485,0.16430305,0.17296812,0.19192816,0.10659973,0.057094455,0.17830473,0.11317546,0.045124043,0.12785581,0.085587046,0.073809117,0.13068894,0.042872211,0.014973319,0.069767927,0.038027615,-0.0079860673,0.0015570063,0.078196113,0.060720932,-0.0016656872,0.047949369,0.10717933,0.11216483,0.09775196,0.14855257,0.23337849,0.28697291,0.31634809,0.33162665,0.34573404,0.32281235,0.36210943,0.41334185,0.3923733,0.46230019,0.52633439,0.53345501,0.58246183,0.60312456,0.61809306,0.64608165,0.62116803,0.64230974,0.65611116,0.6427587,0.69457972,0.6846884,0.70300875,0.75249168,0.75811658,0.77419317,0.7431887,0.72913057,0.74903773,0.76427075,0.80205825,0.81221557,0.77986503,0.77895951,0.81906372,0.82828086,0.78614336,0.79123259,0.86299624,0.83918146,0.74080272,0.68447143,0.63049889,0.51601135,0.46657571,0.58807604,0.603579,0.50052346,0.44376051,0.31727791,0.13838723,0.04699464,0.16684729,0.20206496,0.01774342,-0.16433704,-0.54464756,-1.1791409,-1.8200559,-2.5851752,-3.2851647,-3.8294684,-3.9500783,-2.9951395,-2.3184884,-0.764091
2.0,-2.2225163,-2.8214743,-2.8243509,-2.8752898,-2.6503579,-2.2629881,-1.6422203,-1.0851609,-0.79575044,-0.69544616,-0.57671995,-0.1684772,0.18714805,0.24848153,0.3002233,0.33814306,0.29909056,0.32899362,0.28280339,0.29809539,0.33318718,0.26885605,0.28548153,0.25634232,0.30586816,0.34430009,0.27545758,0.2278435,0.31937459,0.285262,0.24635792,0.25594053,0.17981134,0.22492881,0.17893023,0.12230411,0.10453393,0.096735882,0.18643203,0.055465662,0.043652738,-0.021933448,-0.025015602,-0.024917651,-0.040738151,-0.021108521,-0.014027317,-0.11075199,-0.10572643,-0.08392064,-0.18800148,-0.12868591,-0.18833155,-0.17826471,-0.13477975,-0.15152696,-0.17889525,-0.15643287,-0.070578578,-0.15309522,-0.088888254,-0.081949502,-0.061374731,-0.0083213588,0.036185297,0.111999,0.14707557,0.18473189,0.20500879,0.30449923,0.3210177,0.29898506,0.41663703,0.38823998,0.37292637,0.4522226,0.49624562,0.4909281,0.46714634,0.55141403,0.51080261,0.47323344,0.55656552,0.54238749,0.56655734,0.55987804,0.50181179,0.60685097,0.57803179,0.55624169,0.62616955,0.68693288,0.64258823,0.65963487,0.7348747,0.67779627,0.68547267,0.59224177,0.67864885,0.67307643,0.71354936,0.80509249,0.79340907,0.7597077,0.84043658,0.83767305,0.75846304,0.79623405,0.83118743,0.91455536,0.91239105,0.97762901,0.88444217,0.84468226,0.89204196,0.9176283,0.89173955,0.87870072,0.82823598,0.61569973,0.42524761,0.43342539,0.50968886,0.41607198,0.29502101,0.1967169,0.079917868,0.010463705,0.095561875,0.19500007,0.096290598,-0.16201352,-0.64422926,-1.1716101,-1.8256737,-2.6744105,-3.9285927,-4.186052,-3.7836117,-2.4677977
2.0,-0.91837251,-1.2429257,-1.3007632,-1.6873751,-1.6892276,-1.8778009,-2.0833862,-2.1088562,-2.0068948,-1.7611881,-1.4595177,-1.0345281,-0.68217371,-0.48836897,-0.38673504,-0.28067697,-0.039514168,0.15181226,0.21110165,0.23985604,0.25973682,0.29879439,0.26415027,0.2230998,0.25260805,0.23229095,0.22187308,0.25858063,0.28854319,0.3220819,0.31833459,0.28445284,0.28826039,0.31348997,0.33529534,0.34512071,0.29950749,0.25541568,0.26986458,0.26865902,0.24076536,0.25662546,0.31464751,0.30263542,0.27587549,0.32174847,0.29663287,0.29143475,0.32094299,0.25934395,0.27239532,0.30462489,0.31814069,0.35035491,0.3035675,0.30490938,0.32314417,0.28679434,0.28001712,0.2776331,0.29954253,0.30332338,0.27626797,0.26627673,0.28563038,0.36453283,0.36329293,0.34096936,0.40363221,0.3811429,0.37500382,0.44545235,0.46402937,0.48649827,0.50293269,0.46434246,0.43178526,0.48298592,0.55700233,0.55967208,0.58122967,0.60488898,0.57547952,0.54369379,0.51118898,0.54663186,0.55154789,0.47845562,0.4939471,0.51803194,0.52742018,0.5308296,0.51810439,0.55946626,0.53308704,0.5090608,0.55194964,0.53697932,0.53078254,0.53076603,0.51632184,0.50308472,0.46711977,0.46918651,0.47554046,0.4396171,0.46682922,0.50929029,0.47684998,0.50113023,0.51466292,0.50595717,0.57212056,0.53562996,0.51189555,0.54689968,0.44052125,0.31727969,0.26638015,0.32451699,0.47660287,0.57252056,0.60975929,0.64367074,0.67057172,0.63705558,0.52270751,0.4342739,0.40080501,0.29826167,-0.010721313,-0.43946512,-0.92833477,-1.6676181,-2.116299,-2.9471808,-3.8887905,-4.0697242,-5.0916858,-3.3119584
2.0,0.77244772,-0.43501603,-1.5895897,-2.4398841,-2.6944834,-2.7693302,-2.4935322,-2.1910386,-1.734087,-1.2013446,-0.81383642,-0.67650202,-0.58131093,-0.30388651,0.09096846,0.37009972,0.38431121,0.35129828,0.30106315,0.35849517,0.38786817,0.3314523,0.37515427,0.33683649,0.34709987,0.33477373,0.30882281,0.3361204,0.26842481,0.24460386,0.2657669,0.24593383,0.22878566,0.145619,0.16277576,0.18826437,0.1062143,0.19464084,0.27051696,0.20748071,0.12288081,0.07632142,0.098127708,0.048746652,-0.023184003,-0.00090891551,-0.017266546,-0.013932152,-0.060014795,-0.12140746,-0.10970142,-0.16001894,-0.15849489,-0.12558113,-0.17849647,-0.21096502,-0.23227591,-0.23292736,-0.1676563,-0.15544416,-0.12545623,-0.02190333,0.018952509,0.037431327,0.089461995,0.17637822,0.24302767,0.20308191,0.21946756,0.32072893,0.38389971,0.40921544,0.46312104,0.56287756,0.61771382,0.60315215,0.55799932,0.5034337,0.59037127,0.63064848,0.54349189,0.57422305,0.63459349,0.64191809,0.54755675,0.57148982,0.6607176,0.63429158,0.64175695,0.66033346,0.68516273,0.66870895,0.67340081,0.69339334,0.75622333,0.81671838,0.75241877,0.74719391,0.74331472,0.71071082,0.71609941,0.78099289,0.84403772,0.81572637,0.79453257,0.82229048,0.89068598,0.89427697,0.85972583,0.96066323,1.0134153,0.97078719,1.029874,1.0170529,0.9835584,0.93167303,0.7281325,0.56161386,0.59392106,0.67122456,0.56894747,0.47563413,0.26668261,0.033097604,-0.0048298634,-0.092724729,-0.078122875,-0.039312821,-0.36000758,-0.85578932,-1.3359746,-1.9895149,-2.5134042,-3.0084943,-3.7029015,-3.7645588,-3.3570315,-2.2189321,-1.3009514,0.18688467
2.0,1.3861837,1.539725,1.2762997,0.70786405,0.015371053,-0.67269761,-0.89354904,-1.2241588,-1.6275575,-1.7690157,-1.5547157,-1.0874269,-0.67292133,-0.39663083,-0.27890802,-0.30631606,-0.14631451,0.23822806,0.52685891,0.55098321,0.50961263,0.53162635,0.54169488,0.53943245,0.50505307,0.46288274,0.4712757,0.48601074,0.48116594,0.50670614,0.44235629,0.42009583,0.48736924,0.36125291,0.36401329,0.34420139,0.31249428,0.4220171,0.39083776,0.35866081,0.30766685,0.30047464,0.34902211,0.30681983,0.27921763,0.29857626,0.22843308,0.19519384,0.23971893,0.20455126,0.21515196,0.18495324,0.099327369,0.15457154,0.15203337,0.078288557,0.094431667,0.066052462,0.0091370519,0.034212502,0.028877651,0.016892125,-0.0062180513,-0.030032881,0.047947108,0.032580109,0.025356536,0.022460379,-0.031023422,0.0012868502,-0.0046273583,0.025769836,0.078148048,0.065911477,0.12336964,0.19583767,0.16905874,0.20839727,0.29661332,0.28312027,0.30787676,0.37967714,0.31610585,0.36955288,0.5203236,0.47257362,0.47409156,0.51378414,0.44647692,0.53922586,0.57048556,0.54752503,0.57809835,0.54056402,0.63172206,0.65087978,0.63576316,0.63048881,0.5821881,0.58820343,0.62981048,0.68115948,0.65027373,0.61043338,0.66862826,0.67266645,0.66432666,0.65047985,0.62252399,0.66053345,0.60946057,0.64847689,0.80219452,0.74439956,0.67505588,0.70766023,0.69968855,0.64613456,0.53432104,0.46092047,0.25254491,0.23340893,0.24383442,-0.018604265,-0.19656101,-0.42578472,-0.64243301,-0.87821641,-1.1291607,-1.1928439,-1.3975463,-1.8668493,-2.2306674,-2.6210221,-3.0719545,-3.2555672,-3.9153693,-3.8915912,-4.447539,-2.7804532
2.0,-0.32481451,-1.0698261,-1.4924871,-2.3167521,-2.5992512,-2.4786073,-2.2139819,-1.7635675,-1.3007155,-0.79888861,-0.47274526,-0.40104384,-0.30192532,-0.09350827,0.2277376,0.5248072,0.62029479,0.59550275,0.53606497,0.49387497,0.51617786,0.49601982,0.4791525,0.53034121,0.55276832,0.56852893,0.57361074,0.55284491,0.60630907,0.63722299,0.54419095,0.46119785,0.45801993,0.48541878,0.49356102,0.46400145,0.45698136,0.5153193,0.53700392,0.46612394,0.41026808,0.41564396,0.4137331,0.41958772,0.44070425,0.3766978,0.27921391,0.2689146,0.26056953,0.25064841,0.32880876,0.36756341,0.30371316,0.2284443,0.15319586,0.10092225,0.1128602,0.10917956,0.046692605,0.023865263,0.075524998,0.075090099,0.0018639558,-0.0065360669,0.0504834,0.083080908,0.08177531,0.053418439,0.066492399,0.14848795,0.17772215,0.1674109,0.18636771,0.17737818,0.17311691,0.253449,0.32703319,0.34006371,0.37998407,0.4425223,0.50125803,0.56173809,0.52722588,0.47373969,0.53591802,0.5796292,0.57995722,0.61701684,0.66351693,0.69832105,0.66031234,0.63380049,0.72911248,0.76453865,0.73901227,0.75980326,0.73323654,0.73472097,0.81030555,0.82751485,0.7935962,0.73355767,0.69899491,0.73297595,0.74501467,0.78143972,0.84111315,0.85450269,0.88042981,0.80787898,0.66595899,0.62017579,0.48239384,0.34155853,0.40054336,0.41224827,0.34398318,0.27976392,0.14301205,0.039615527,-0.026212684,-0.16536383,-0.26941673,-0.29574828,-0.38757919,-0.61764044,-0.94377711,-1.3566774,-1.8281195,-2.32788,-2.7919523,-3.1210263,-3.4739194,-3.7274976,-3.478009,-2.8149918,-1.7427054,-0.62130212,0.010265226,0.91919927
2.0,-0.96865161,-2.0161413,-2.4097017,-2.9640205,-2.8148465,-2.5448908,-2.2068094,-1.7871525,-1.2152708,-0.7812149,-0.62121661,-0.52215116,-0.22376999,0.17560227,0.38203723,0.39925827,0.3128966,0.36764297,0.40619069,0.35194793,0.37237954,0.30446863,0.31363124,0.33882376,0.30316914,0.32052139,0.31121798,0.2943811,0.29299449,0.29000085,0.25717358,0.3100875,0.34972074,0.29178601,0.31071846,0.28259481,0.21160225,0.23279891,0.18529193,0.11194288,0.13572699,0.1401892,0.11442662,0.058400457,0.045868246,0.084731461,0.050596627,3.3741212e-05,-0.018969173,-0.038398391,-0.086486469,-0.057200486,-0.049281468,-0.079429672,-0.0084771669,0.0029145384,0.011215209,-0.0028739549,-0.077053942,0.0025919802,0.076563848,0.022148919,0.062898535,0.14287223,0.167487,0.2110031,0.26148057,0.34645785,0.45375129,0.49649581,0.48865527,0.54386935,0.59208234,0.54754088,0.56188016,0.61546683,0.5676887,0.57161994,0.65493702,0.6382113,0.56959001,0.56533619,0.57990771,0.55533933,0.60066282,0.59146911,0.5298868,0.58600029,0.6094776,0.61627613,0.57807303,0.56053446,0.64884564,0.64552778,0.60881263,0.62712435,0.63356923,0.68170898,0.70709283,0.69013288,0.74707943,0.77050712,0.76944726,0.83115449,0.83694061,0.80208139,0.83211829,0.86502054,0.86560338,0.88641559,0.92415993,0.87735007,0.85067788,0.86248297,0.69643251,0.51031988,0.51344906,0.59190892,0.60187096,0.51218566,0.43154268,0.3445568,0.16935122,0.18157844,0.3497933,0.34862624,0.11661407,-0.34365948,-0.95406863,-1.5845592,-2.1321265,-2.7668994,-3.4125682,-3.8647191,-3.6812962,-2.7320569,-1.8394553,-0.70344747,-0.51174013,-0.0047188964
2.0,1.3114534,1.0901261,0.59718049,0.0087107704,-0.45931076,-0.88488746,-1.1013153,-1.3327035,-1.5896219,-1.5654914,-1.3313058,-0.99163224,-0.62519463,-0.40795474,-0.28331317,-0.19878482,-0.036640349,0.30305354,0.54727574,0.59665402,0.60727374,0.55839667,0.52152,0.6050199,0.59162854,0.48746018,0.51876839,0.56996735,0.58827318,0.56713221,0.54255008,0.59550225,0.5745614,0.55376794,0.5585074,0.53544108,0.51839589,0.48409823,0.49726737,0.49089863,0.43369394,0.40405811,0.4532996,0.48579684,0.41822299,0.40588181,0.397406,0.42800995,0.45739599,0.33537381,0.29907755,0.34066932,0.34526632,0.27937524,0.23386423,0.27018314,0.24138694,0.22156908,0.20505615,0.26860359,0.27230047,0.10011142,0.086733641,0.09862185,0.06126377,0.056530936,0.037945016,0.039170928,-0.019458819,-0.069913986,-0.023411843,-0.030307361,-0.028276325,0.019811219,-0.014308636,0.02189546,0.10467627,0.11767616,0.11669494,0.11662534,0.16307748,0.21160558,0.2202134,0.28716458,0.30402759,0.31251575,0.41770872,0.39964485,0.42087631,0.51410264,0.46266888,0.44664967,0.48314541,0.48505135,0.54581093,0.50931194,0.52800735,0.59578122,0.48994629,0.52074203,0.53610057,0.53874524,0.58121743,0.5622172,0.64861019,0.65208141,0.64145975,0.70900437,0.7059643,0.6725306,0.65596212,0.69409525,0.7495089,0.68941553,0.62982503,0.63800509,0.63693758,0.61292379,0.4194543,0.24951479,0.33376692,0.33209615,0.16338038,0.024293856,-0.16293049,-0.33871245,-0.59449326,-0.95263544,-1.0597108,-1.1400182,-1.4477484,-1.77152,-2.0513238,-2.6761139,-3.1392518,-3.4488454,-4.1252242,-4.0337349,-4.4668469,-2.5873521
2.0,-0.65566563,-1.3641879,-1.5284373,-2.1918003,-2.2834803,-2.3484921,-2.5234186,-2.4331546,-2.3063297,-2.1407079,-1.847794,-1.3596709,-0.85375304,-0.59338669,-0.51062539,-0.44002592,-0.29441047,-0.093948206,0.051577738,0.095716702,0.076333605,0.040825222,0.047660932,0.1048866,0.16633617,0.18327507,0.16402077,0.14035576,0.10170216,0.11986827,0.20318899,0.1864521,0.12900546,0.124009,0.11790068,0.16871162,0.21611319,0.15136108,0.13420757,0.21404391,0.2389432,0.20993553,0.2289079,0.27114229,0.28856062,0.28162702,0.25924459,0.25156044,0.25650122,0.23679884,0.23451981,0.27370909,0.28354964,0.28773794,0.33402142,0.37135332,0.40275679,0.41150453,0.39760582,0.42894376,0.44816407,0.44228357,0.44212653,0.45051736,0.52128819,0.55775849,0.52863217,0.53501912,0.4933898,0.45968198,0.54244704,0.59170823,0.5797026,0.62231355,0.64291866,0.6068854,0.60726147,0.61904468,0.64866234,0.73183052,0.74395622,0.70658928,0.73483619,0.71785781,0.65749182,0.71258931,0.71879622,0.57639786,0.55558998,0.63992861,0.62038326,0.60921684,0.65977482,0.63393938,0.60141218,0.64035216,0.65132405,0.64204896,0.64183196,0.60286091,0.59030174,0.62027076,0.6083943,0.61382216,0.66919045,0.64934312,0.61253524,0.65920555,0.69962805,0.70861977,0.71854981,0.68382575,0.62709927,0.59134535,0.5663383,0.60866299,0.68550929,0.65291541,0.60649637,0.61602759,0.58419606,0.53884905,0.54285298,0.63574602,0.69596621,0.5672608,0.35362801,-0.02050491,-0.6170662,-1.1602721,-1.7324129,-2.4138461,-3.1295691,-3.6202674,-3.4613928,-2.999496,-2.0720309,-1.2079033,-1.3854944,-0.14232541
2.0,0.7086579,-0.38873205,-1.3737971,-2.0011479,-2.6880651,-2.9960107,-2.8775533,-2.460169,-1.797271,-1.3571798,-1.0041632,-0.92058134,-0.67544532,-0.24479214,0.096444774,0.19631862,0.1512099,0.13671421,0.22615246,0.22838334,0.25443988,0.23316004,0.20145146,0.17588174,0.19385706,0.24587942,0.18064858,0.23049128,0.23066475,0.14136229,0.092971764,0.13367457,0.16713653,0.14664332,0.10962922,0.058904195,0.066816684,0.05741169,0.020945167,0.067549925,-0.041943128,-0.05783953,-0.14169823,-0.090983235,-0.16776503,-0.24198301,-0.13648306,-0.17900379,-0.28605918,-0.26206694,-0.34692025,-0.30961458,-0.32709006,-0.27270193,-0.27873708,-0.24302899,-0.19782245,-0.35035182,-0.32280238,-0.19336644,-0.16560771,-0.11749582,-0.057547768,-0.046854378,0.032661684,0.11404314,0.1210005,0.17619553,0.2309494,0.31692511,0.34959307,0.32971881,0.41605734,0.42689271,0.46524683,0.48963736,0.45150161,0.49339308,0.53515825,0.56349002,0.56606843,0.58766401,0.64349923,0.62304482,0.56969576,0.65018711,0.59696361,0.63110678,0.64768414,0.69071671,0.66291393,0.66943453,0.70845836,0.66610176,0.68661836,0.72964943,0.72920345,0.7498782,0.76887281,0.79436683,0.78875419,0.83383888,0.82963699,0.90428926,0.95244863,1.0048404,0.95573916,0.97737262,1.0205665,1.00082,1.083695,1.0602934,1.0840369,1.1709038,1.1213157,1.1736336,1.1336433,1.1276034,1.017678,0.81032542,0.78621347,0.73342954,0.72820047,0.64923763,0.49962746,0.2322326,-0.0039002077,-0.14544394,-0.071739453,-0.079646823,-0.42096326,-0.74666596,-1.3297389,-1.9156023,-2.5307718,-3.1736818,-3.9129933,-3.5057993,-2.5089999,-1.3517481
2.0,-1.1467688,-1.8783454,-2.2526972,-2.494664,-2.5717777,-2.4336662,-2.2082938,-1.8074684,-1.2968524,-1.0004457,-0.98852332,-0.7360071,-0.44988071,-0.36461773,-0.34709719,-0.34853792,-0.33925219,-0.28772905,-0.31627524,-0.30394875,-0.35011431,-0.31048411,-0.30788137,-0.28831537,-0.30719559,-0.31386207,-0.299696,-0.34517089,-0.30256231,-0.35178265,-0.34236381,-0.3795748,-0.34084995,-0.31282895,-0.37539545,-0.38769028,-0.38101907,-0.37423629,-0.40123347,-0.38267234,-0.3836582,-0.41296065,-0.40195503,-0.36683328,-0.41272426,-0.41028443,-0.40405835,-0.3597644,-0.36849408,-0.32747383,-0.33762346,-0.35450068,-0.30212181,-0.24450842,-0.24431914,-0.22602006,-0.15287383,-0.12998821,-0.15210124,-0.15228737,-0.10464877,-0.140041,-0.14469337,-0.14691484,-0.083416186,-0.088901427,-0.081392536,-0.064502687,-0.090942078,-0.14355002,-0.17046567,-0.13093467,-0.090563347,-0.10815864,-0.15690117,-0.11642489,-0.13319266,-0.11395582,-0.10750688,-0.099582131,-0.081921046,-0.10362536,-0.074597791,-0.043252554,-0.014443547,-0.040442885,-0.027945762,-0.093802131,-0.030792985,0.058707373,0.016601594,0.036572633,0.035981079,0.046884706,0.058666748,0.14081338,0.10188359,0.018386046,0.046147706,0.080021407,0.14975822,0.14185385,0.14444396,0.15979199,0.19399391,0.16957625,0.14134163,0.10793572,0.1821639,0.21987189,0.28604872,0.31221771,0.32674077,0.43859495,0.57626247,0.71348116,0.86719901,0.98796265,1.0816786,1.263394,1.4802459,1.6652269,1.8247682,2.009118,2.2473613,2.4990138,2.7913165,2.8549631,2.9083877,3.0183902,2.9609691,2.6023372,2.0765724,1.7005105,1.2330822,0.32599991,-0.35517177,-0.78420146,-1.2479962,-1.5160295
2.0,-0.14475703,-0.59108065,-1.1173538,-1.5926913,-1.8795917,-2.3415231,-2.3995875,-2.283198,-1.9994681,-1.3961584,-0.80478219,-0.52457266,-0.4099071,-0.18164588,0.086637974,0.23013601,0.27560902,0.27884288,0.25230495,0.2833983,0.26635065,0.25034689,0.27974871,0.28341465,0.29097531,0.30702507,0.25796441,0.27175546,0.27196932,0.23039234,0.22233092,0.25001146,0.21445892,0.25660492,0.27994173,0.19690487,0.22595407,0.22213635,0.21579767,0.15979907,0.20544581,0.16358553,0.11765691,0.11865489,0.19406813,0.099307908,0.058070221,0.060628921,0.0125047,0.011370893,0.054196064,0.087766028,0.021503417,-0.0075393304,0.019691795,0.065466458,0.06212198,0.060705017,0.11831119,0.14732665,0.1902196,0.18832044,0.24850785,0.25753648,0.36896236,0.37648263,0.3549426,0.39789937,0.36231824,0.38779521,0.48753093,0.49572985,0.42189682,0.4430052,0.53612462,0.52648893,0.50031166,0.56327162,0.51326293,0.40011388,0.43383897,0.49611566,0.44979943,0.48928063,0.49358584,0.54863202,0.57976334,0.50401104,0.49883204,0.49105416,0.5482078,0.52401158,0.47375099,0.4707274,0.4617687,0.5635919,0.54539302,0.59011213,0.67865865,0.61267194,0.58610107,0.61382863,0.68663792,0.6862958,0.67603933,0.75444748,0.71449254,0.73888422,0.75183229,0.78995751,0.79352323,0.71716599,0.79520328,0.80299558,0.7867254,0.77160585,0.69158165,0.59684805,0.45296852,0.45309511,0.50997002,0.53806637,0.56182855,0.49884352,0.51573627,0.46178796,0.47511953,0.43139765,0.24814292,-0.16616267,-0.81865893,-1.4656289,-2.1090401,-2.853329,-3.8559237,-4.3443903,-4.2361053,-3.1465249,-2.351879,-1.5933456
2.0,-0.37993038,-0.92223942,-1.4253575,-1.9022033,-2.1927762,-2.3072792,-2.1897814,-1.9911534,-1.4189197,-0.88212935,-0.52776277,-0.49766073,-0.48441551,-0.063706154,0.25503341,0.40315548,0.41574216,0.29706862,0.40078471,0.47326451,0.3195089,0.34991511,0.47012923,0.37990784,0.31896945,0.28484637,0.19966054,0.24287606,0.22317551,0.32646104,0.37108515,0.3551994,0.47355598,0.472697,0.3511406,0.35530027,0.44624213,0.3989549,0.33283502,0.35784902,0.42346846,0.3392295,0.25392786,0.34367,0.27025498,0.11534386,0.22805178,0.29306322,0.15679844,0.2496081,0.37424653,0.17145033,0.14155208,0.26096602,0.19774703,0.18889107,0.14511459,0.15840843,0.28496018,0.29907627,0.27984906,0.19372101,0.21352095,0.2226116,0.10906136,0.30796593,0.3896536,0.34010384,0.3360263,0.45607436,0.51023511,0.41132927,0.38270644,0.29098454,0.35823671,0.59084575,0.59734969,0.44494756,0.43077207,0.56589473,0.44740936,0.54254976,0.57078199,0.41314689,0.34994191,0.33373893,0.45472673,0.53864779,0.51473749,0.37758269,0.51048083,0.62008493,0.55880815,0.49829888,0.45818641,0.46749094,0.51394685,0.44199617,0.48243473,0.63423996,0.55199644,0.53134507,0.60040706,0.56293616,0.51546619,0.50652194,0.57431129,0.72293493,0.68329611,0.58190999,0.56707069,0.56063688,0.61045284,0.57571733,0.54312753,0.6271106,0.68667525,0.67083455,0.47921328,0.30095723,0.30615219,0.34197946,0.44731176,0.4335765,0.2863811,0.21035871,-0.04705388,-0.40110507,-0.52810837,-0.49653524,-0.5633511,-0.73289885,-1.212195,-1.7308153,-2.4688539,-2.9458882,-3.8650441,-4.2818973,-4.7986674,-3.5532609
2.0,0.67982432,-0.86388399,-2.2981954,-3.186748,-3.4150581,-3.2658132,-3.0114549,-2.5926669,-1.773994,-1.1794626,-0.95569435,-0.87263651,-0.54416553,-0.045461628,0.21582123,0.19781233,0.13472548,0.099036927,0.15362736,0.13039724,0.14723182,0.16619068,0.10646569,0.10702319,0.14272139,0.16051579,0.063154387,0.1865855,0.13893276,0.11868242,0.10343084,0.097189365,0.15821442,0.085536995,0.08769398,-0.0067521754,-0.054513731,-0.030161448,-0.050079634,-0.075976554,-0.10990834,-0.21167118,-0.18196598,-0.2112358,-0.27372587,-0.13019503,-0.20401973,-0.26142986,-0.29028927,-0.24758042,-0.29884498,-0.30396798,-0.20146371,-0.1889676,-0.20946573,-0.14345827,-0.1223996,-0.15129675,-0.015997936,-0.041813646,0.029709011,0.097196968,0.16358977,0.26516317,0.253499,0.31716555,0.40198204,0.36454896,0.32880831,0.44600459,0.46674886,0.49002934,0.44824338,0.43503283,0.55486106,0.51025823,0.43764075,0.47422793,0.4333283,0.55231897,0.59982193,0.57851037,0.59178524,0.58086674,0.61878983,0.70644705,0.65920325,0.65967533,0.71542197,0.65195636,0.68218003,0.71410471,0.78961267,0.81535935,0.80399615,0.78752277,0.86917345,0.95516453,0.90158214,0.9581331,0.86900072,0.97329736,0.93648517,0.96729428,0.98814989,0.9876,0.96243068,1.0360548,0.92621706,0.93166857,0.96526213,0.99866853,1.0428041,0.96553378,0.90899119,0.9358766,0.84107409,0.8437112,0.76683256,0.56257689,0.47101306,0.45453486,0.59425965,0.4730399,0.18959488,0.064594258,-0.095034295,-0.12442025,0.060608738,-0.05356397,-0.43883751,-0.73867599,-1.3304901,-1.9276708,-2.3640528,-2.9345494,-3.3940484,-2.950691,-1.8328534,-0.10034858
2.0,0.19051403,-0.10230775,-0.55241023,-1.0643913,-1.3026149,-1.5218729,-1.8049911,-2.0561807,-2.0848517,-1.8391697,-1.5141082,-1.0974252,-0.67647939,-0.44574755,-0.35644024,-0.26600147,-0.064550797,0.19780249,0.31178097,0.23400123,0.16173482,0.2127658,0.28041138,0.32021785,0.35531559,0.32920927,0.29208066,0.28448044,0.27699538,0.34785036,0.43501444,0.39079927,0.32612475,0.35264114,0.36731426,0.34805118,0.3669875,0.41168234,0.414347,0.34167448,0.33482991,0.4142631,0.42349843,0.43340188,0.46251551,0.41700337,0.4184458,0.46646463,0.40322705,0.35250521,0.39068377,0.37438083,0.38276689,0.45611873,0.47261678,0.46107408,0.4546616,0.43415658,0.39897306,0.39035976,0.43275321,0.45322634,0.44483569,0.46137098,0.47463438,0.46380528,0.4572677,0.44288219,0.45587743,0.52374108,0.54355092,0.52070485,0.52872984,0.56053786,0.57039727,0.49461257,0.4676212,0.56172061,0.59978175,0.58864225,0.59489262,0.56422535,0.55916683,0.60354633,0.59796297,0.60047082,0.62202718,0.58613734,0.60032784,0.61585512,0.54761589,0.52288595,0.56296297,0.63115305,0.66232603,0.64835012,0.65280508,0.61998104,0.59217266,0.62456527,0.62552231,0.61354827,0.6284314,0.59488335,0.5670747,0.57790442,0.52670283,0.53203474,0.59785864,0.57437008,0.56096398,0.57322412,0.58627497,0.56970883,0.43651503,0.34051488,0.35054029,0.39983733,0.4367574,0.38439576,0.32324432,0.22203395,0.046073474,-0.1746001,-0.47172688,-0.55837705,-0.51354881,-0.6867791,-0.91101681,-1.1674341,-1.5709171,-1.9995117,-2.4941522,-3.0555702,-3.5068085,-4.0067727,-4.0678328,-3.3629724,-2.6233337,-1.0953853
2.0,0.65190222,-0.4388492,-1.2680257,-1.7648128,-2.014846,-2.3603276,-2.5539436,-2.5827579,-2.2954866,-1.7206515,-1.1579163,-0.68400907,-0.49732082,-0.53631509,-0.32207275,0.11498521,0.42875759,0.56172686,0.53731402,0.49427178,0.52156215,0.58578906,0.60651807,0.56715664,0.56511656,0.54492866,0.51876527,0.58082462,0.58539223,0.50580032,0.50789758,0.52913148,0.55290157,0.53229055,0.45479715,0.48648303,0.48241532,0.44809914,0.48113738,0.42674392,0.39950475,0.45788869,0.40829771,0.36205735,0.38595651,0.30221679,0.26082728,0.31740797,0.24167661,0.1920238,0.25647097,0.21829273,0.19437887,0.23210525,0.16645283,0.060320999,0.075482379,0.12543253,0.08233535,0.10007154,0.11392807,0.075811572,0.13600002,0.15793681,0.1160897,0.13746471,0.13829945,0.14444663,0.22105176,0.24266611,0.21232341,0.16892731,0.14411177,0.18466796,0.20664787,0.23987219,0.31599138,0.34651505,0.3680479,0.42549978,0.42678963,0.38229501,0.41005758,0.4595783,0.45237227,0.44807512,0.50165174,0.58156028,0.53188684,0.47646985,0.51853303,0.48536096,0.48678789,0.48670313,0.45239405,0.49872343,0.48359308,0.48313901,0.57974845,0.56240883,0.52111617,0.56255517,0.54553477,0.57457446,0.61785007,0.53292833,0.49989743,0.55832775,0.56921524,0.56893365,0.59742822,0.57958134,0.58539223,0.6463859,0.6456665,0.61097132,0.51853756,0.34515299,0.33223282,0.45877325,0.46988019,0.44905959,0.37514745,0.17877032,0.083374977,0.038003297,0.029382642,0.28986237,0.38510318,0.026940798,-0.36357044,-0.85697064,-1.3601813,-2.086644,-2.8389913,-3.6258791,-4.3529959,-3.8481699,-3.7544516,-1.8277283
2.0,0.86453818,-0.10092689,-1.2345914,-1.9716599,-2.29885,-2.6525513,-2.6262076,-2.4289089,-1.9310017,-1.3979767,-0.91910208,-0.74152273,-0.74488958,-0.41814543,0.0065856896,0.24570637,0.20385033,0.16850648,0.23168788,0.22150182,0.22122841,0.25183106,0.24697547,0.24251483,0.30314697,0.22582273,0.25231682,0.24153586,0.20803889,0.24820417,0.18173418,0.22821908,0.24036804,0.25232011,0.23204802,0.19740219,0.17695783,0.15212147,0.12352596,0.23869806,0.10564244,0.067865401,0.0131139,0.0095992816,0.039658687,-0.017007227,0.043139995,-0.10276763,-0.0020102553,-0.031064117,-0.16288124,-0.14998913,-0.10454662,-0.087227461,-0.08438822,-0.23538009,-0.19214167,-0.13275961,-0.18379519,-0.17338374,-0.13665905,-0.093129088,-0.051807212,-0.039031347,-0.1121095,-0.068682083,0.099639014,0.13535267,0.20441811,0.28333,0.26137682,0.26062065,0.30637921,0.40347789,0.40972621,0.38288207,0.46024679,0.51467645,0.47234195,0.55091701,0.60576066,0.57452954,0.58021856,0.53239442,0.63016541,0.62891299,0.6378635,0.65559708,0.62684245,0.61849035,0.69876517,0.67423372,0.69752349,0.73864911,0.73928963,0.69498425,0.73992573,0.71137865,0.83890877,0.78550645,0.85073736,0.86851027,0.89823833,0.88095092,0.8287842,0.81332806,0.8873727,0.92255406,0.96123342,0.95739703,0.95146311,0.93890168,0.98938563,0.93828998,0.93926795,1.0095849,0.90888579,0.85744578,0.90633193,0.72239369,0.56520299,0.6094855,0.66592027,0.61774227,0.32381571,0.14306437,-0.079236567,-0.34998572,-0.23662531,-0.07330576,-0.46232096,-0.87471911,-1.4720758,-2.0345137,-2.5883249,-3.4438316,-4.1595269,-3.9160418,-2.8162951,-1.6641214
2.0,-0.52318883,-1.9929359,-2.8361341,-3.176228,-3.0957553,-3.1058151,-2.9593113,-2.5304411,-1.7960639,-1.0198311,-0.62451938,-0.57473891,-0.3230973,0.11671887,0.26008516,0.29705707,0.33526092,0.29023533,0.31806716,0.28875532,0.3188173,0.28443698,0.26464938,0.18899241,0.16281716,0.28778268,0.26333654,0.2995801,0.17944739,0.22675791,0.17853909,0.15576374,0.21553056,0.16452631,0.17601495,0.16105423,0.17119548,0.11487727,0.15040888,0.13137067,-0.00028000188,0.064722943,0.024666703,0.003126061,0.042085709,-0.008074727,-0.0059268951,-0.030177853,-0.075778521,-0.10909072,-0.015844702,-0.0012906773,-0.016432975,-0.10638163,-0.10993199,-0.012518179,0.07198871,0.10699775,0.14057129,0.12380887,0.15865408,0.27955311,0.29438533,0.37521201,0.44307086,0.36393374,0.32166169,0.4276912,0.46064647,0.46403932,0.5353775,0.51435336,0.48275405,0.5358605,0.49503059,0.48467693,0.49895533,0.57083804,0.56496197,0.49801082,0.50183041,0.56989592,0.46108212,0.507429,0.62228704,0.53423586,0.54796203,0.60866711,0.62300353,0.59254372,0.63012059,0.55838408,0.61231205,0.60965664,0.72796597,0.76422666,0.68380369,0.72674808,0.73361808,0.76719447,0.78139518,0.72031341,0.78075945,0.76378703,0.84562935,0.80760508,0.82342483,0.82387313,0.81539681,0.86420582,0.7839047,0.86181805,0.76377928,0.75725318,0.70393326,0.76453589,0.75336107,0.58704567,0.46778163,0.37111452,0.37641119,0.4074598,0.31407326,0.34301306,0.15709307,0.069063968,0.044997999,0.13986353,0.2913747,0.14634862,-0.19191886,-0.7540443,-1.2645198,-1.8306162,-2.6451737,-3.2272863,-3.6596537,-3.0894087,-2.2158944,-0.93499213
2.0,-0.67155938,-1.2131216,-1.3162312,-1.7496506,-1.8924416,-2.1556143,-2.2974397,-2.1035082,-1.8566729,-1.5079409,-1.1343157,-0.73385193,-0.44175813,-0.36455211,-0.29033922,-0.18247245,0.0085884299,0.27410925,0.38653396,0.37841908,0.39849266,0.41698264,0.41773428,0.41718069,0.41654647,0.39757285,0.38409013,0.40018932,0.39235811,0.3664508,0.36827365,0.3900125,0.41380952,0.38665301,0.33860518,0.35922499,0.37446614,0.3409112,0.32318248,0.35643424,0.39764619,0.36052837,0.32289476,0.33999157,0.30222273,0.27340072,0.31701872,0.31215037,0.27529797,0.29407967,0.30918871,0.32198354,0.33725408,0.27931684,0.27313431,0.30683858,0.2559176,0.25292051,0.24875714,0.19564448,0.22175304,0.24724915,0.24431612,0.22423773,0.22375674,0.29638091,0.28873465,0.26612603,0.32157522,0.30516366,0.30404837,0.3780677,0.36734485,0.32259628,0.34952276,0.37744383,0.38732281,0.4126485,0.43045448,0.47500356,0.51219958,0.5083374,0.53944422,0.571847,0.59494572,0.60369607,0.56166046,0.58485659,0.64739735,0.59995477,0.53024577,0.53884262,0.56509986,0.57200741,0.57355996,0.55512176,0.53594074,0.56377012,0.58804557,0.5731368,0.57786172,0.56506754,0.55474375,0.57121106,0.51089268,0.51109756,0.57150626,0.53240843,0.55458446,0.58430416,0.50205887,0.48742576,0.50113141,0.45440818,0.42891765,0.36989679,0.25366006,0.25250618,0.3682062,0.43138655,0.40160369,0.31073733,0.22594333,0.18256254,0.14134841,0.20838173,0.50782726,0.76815062,0.70239438,0.36515868,-0.27100938,-0.95398522,-1.5480476,-2.2871209,-3.0581176,-4.0355414,-4.3648178,-3.9126394,-3.8005304,-1.7009683
2.0,-1.3487608,-2.1867986,-2.4465862,-3.0312269,-3.2072113,-3.2883619,-3.0556165,-2.5994067,-2.0973015,-1.4791096,-0.99572286,-0.87283587,-0.80135319,-0.45738413,-0.17126432,-0.0036961176,0.097286904,0.04577036,0.10728332,0.1761685,0.1448101,0.15373285,0.15079994,0.19170132,0.2108233,0.17668516,0.19960958,0.26050453,0.27232529,0.22573194,0.25886243,0.3269361,0.25281422,0.16954403,0.22166168,0.24770349,0.21571025,0.23022905,0.26004672,0.26753379,0.24169747,0.20922481,0.16038431,0.20870883,0.30653598,0.1738968,0.05800741,0.092277273,0.097442193,0.12937784,0.12210876,0.053803617,0.051502656,0.084642459,0.11398977,0.12360591,0.091442017,0.12177419,0.12345486,0.098630341,0.17798883,0.19277354,0.20389668,0.23043039,0.27490766,0.38425059,0.39147823,0.41227857,0.42184444,0.44172852,0.51748503,0.49879663,0.54791092,0.56488497,0.54083853,0.61541776,0.64393172,0.67288557,0.67923631,0.65815429,0.64242261,0.66005146,0.73738808,0.67622326,0.61969943,0.68098363,0.70028839,0.67431669,0.62528503,0.66323543,0.70143857,0.66066871,0.67914658,0.66780558,0.61641744,0.64742282,0.63524085,0.60842952,0.66175048,0.62881141,0.62185466,0.67342571,0.66368493,0.69461679,0.69945065,0.65740302,0.64529853,0.67245246,0.7502333,0.78317447,0.74370507,0.75348841,0.7982801,0.75394916,0.70010327,0.71362021,0.66219125,0.62686818,0.62457335,0.59226505,0.57302659,0.45718509,0.48120313,0.45046255,0.2802531,0.4481059,0.52251846,0.39990308,0.19389914,-0.29830531,-0.82044946,-1.3519482,-1.8588379,-2.3407418,-2.8844258,-3.196063,-2.8422633,-2.0450114,-1.4782956,-0.26314472
2.0,-1.9118342,-2.4437412,-2.5753818,-2.5157778,-2.4649795,-2.2552471,-1.9044571,-1.3926895,-0.92220032,-0.82579482,-0.70510995,-0.46430372,-0.25364184,-0.1849022,-0.19185499,-0.25544164,-0.26359861,-0.24854258,-0.23030754,-0.17991873,-0.15642103,-0.15398933,-0.16151424,-0.18676761,-0.1719051,-0.18780575,-0.16989984,-0.21664273,-0.24726275,-0.2120415,-0.20334942,-0.22444743,-0.23468244,-0.28030212,-0.2623805,-0.2778017,-0.37739136,-0.29300509,-0.30385194,-0.31346441,-0.3065219,-0.32940655,-0.37747027,-0.35249415,-0.33000112,-0.29636308,-0.36578197,-0.33502703,-0.31565959,-0.26068522,-0.23520019,-0.30959948,-0.28860771,-0.26550811,-0.21575424,-0.12918242,-0.10275816,-0.067525671,0.033191091,-0.045104534,0.041259465,0.05171647,-0.036575765,0.047536433,0.043288631,0.049671498,0.048200876,0.044223738,0.056119292,0.014982658,-0.012015912,0.048996349,0.10836982,0.12888845,0.111641,0.044384223,0.13645726,0.13709693,0.099112483,0.11905566,0.10461741,0.15582443,0.087073092,0.13452834,0.16943585,0.18555373,0.22061417,0.15106143,0.16858686,0.14392849,0.25966454,0.23595807,0.21516782,0.30225696,0.33239243,0.3504563,0.32985494,0.3360011,0.36684762,0.3869205,0.39507809,0.35798961,0.33367264,0.38270557,0.38049506,0.39800073,0.49083907,0.48626902,0.53282244,0.66199825,0.79075024,0.94972986,1.0020187,1.11192,1.2608788,1.489962,1.6430692,1.7301975,1.8095412,1.8515141,2.0645747,2.1802799,2.2624092,2.4423523,2.5928318,2.473724,2.2223892,1.8253833,1.6129192,1.134859,0.37656347,-0.21915295,-0.6510275,-0.93122979,-1.0240662,-1.4030552,-1.954082,-2.3548021,-2.4975386,-2.4118257
2.0,-0.1648246,-1.3148334,-1.7589785,-2.2953263,-2.5727098,-2.6169267,-2.2965901,-1.7621151,-1.2646022,-0.89722734,-0.68421438,-0.63992954,-0.30614279,0.18519353,0.34978469,0.35354218,0.2865633,0.29326432,0.31462621,0.2315217,0.256416,0.31713442,0.29158551,0.31210061,0.30991272,0.32009668,0.23248333,0.23381156,0.25826246,0.20002325,0.26829519,0.23162994,0.20854427,0.22638777,0.20283085,0.16081451,0.098203296,0.11147149,0.17482319,0.16692845,0.060543183,0.069520227,-0.0067486209,0.062191066,0.10826864,0.030159797,-0.02419225,-0.11221368,-0.094737307,-0.095105079,-0.11107403,-0.23738375,-0.2283095,-0.22870021,-0.23214109,-0.22253229,-0.27150168,-0.2135562,-0.16107615,-0.24498678,-0.19487579,-0.11707292,-0.16385207,-0.097762889,-0.050694342,-0.0090618792,0.025616157,-0.0076860357,0.087871731,0.18976883,0.24765161,0.18182015,0.31421923,0.41588468,0.45833279,0.45420508,0.45170805,0.47422993,0.47349757,0.55246998,0.51419464,0.47471934,0.59085579,0.57520956,0.53613513,0.63394559,0.68258028,0.68251827,0.70357152,0.68435735,0.69599407,0.74479413,0.74552437,0.76704604,0.74669569,0.72280486,0.784096,0.77711208,0.78885304,0.85279189,0.85165193,0.82865614,0.81056337,0.7881321,0.84236278,0.96405767,0.92356905,0.92043695,0.91752789,0.94726504,0.91336442,0.98997878,0.98016778,0.9994596,1.0182985,0.98549532,0.96812293,0.95646023,0.92991261,0.70757793,0.63358671,0.59394598,0.59429398,0.49164795,0.29284064,0.075510046,-0.054590011,-0.24318838,-0.13934322,-0.15237274,-0.41393803,-0.72578165,-1.2645722,-1.7737254,-2.5650927,-3.1953248,-4.1326862,-4.0490498,-3.4173787,-2.056167
2.0,1.3936131,1.1561045,0.75246219,-0.044627436,-0.65857721,-1.0160938,-1.4876902,-1.762665,-1.7277887,-1.3447478,-0.90422019,-0.49892143,-0.3358605,-0.35889742,-0.031603556,0.41974254,0.50262388,0.36531524,0.4653278,0.47074303,0.45507766,0.39488603,0.45113855,0.43430102,0.31162456,0.44796205,0.41183509,0.38990003,0.35405233,0.4341995,0.35641309,0.40033851,0.39109254,0.34674629,0.30791047,0.26511176,0.27527963,0.20729434,0.19705679,0.23570655,0.19663549,0.12382415,0.12981809,0.032036635,0.097783183,0.14451295,0.087780223,0.063691863,0.051839515,0.037267743,-0.083052397,0.0082626672,-0.071170428,-0.0041444754,-0.1107275,-0.077405478,-0.0022203211,-0.089701708,0.011933925,-0.030881205,0.027748098,0.076995541,0.058886188,0.11463456,0.10658581,0.13725691,0.19155506,0.22001473,0.26400033,0.41146416,0.32655289,0.29097062,0.37916015,0.39703263,0.38855443,0.42656645,0.46278017,0.43943217,0.49542874,0.5000119,0.49465132,0.53256651,0.50659505,0.54080685,0.54603414,0.56683354,0.50423258,0.47982637,0.52970647,0.52149807,0.62119313,0.53482842,0.5059083,0.56615872,0.52770492,0.54815819,0.60717847,0.53483036,0.50168588,0.64947018,0.57116595,0.57769578,0.62595928,0.625836,0.64665766,0.63743148,0.62901252,0.70491547,0.67598996,0.69517593,0.75079632,0.65470781,0.68349927,0.69497874,0.64755733,0.74033921,0.7061413,0.64680329,0.67358787,0.51819271,0.4104684,0.23912991,0.25795842,0.16702482,-0.037896224,-0.28467837,-0.51472989,-0.77791399,-1.1579019,-1.2157735,-1.3885478,-1.7781564,-2.1430591,-2.796142,-3.1441108,-3.6631439,-4.315169,-4.4395356,-3.5551403,-2.4428743
2.0,2.169973,1.5961585,0.3687589,-1.0972249,-2.1552032,-2.7352585,-2.7715162,-2.4762885,-2.3483901,-2.1674985,-1.6766057,-1.1408023,-0.70644516,-0.53901395,-0.49513318,-0.18763013,0.16517077,0.33739703,0.38328424,0.38627267,0.3850852,0.41643139,0.48935466,0.44307098,0.34412017,0.37209391,0.37444514,0.37610987,0.43280224,0.37636229,0.35763578,0.36448541,0.25628211,0.33274482,0.41097778,0.31476236,0.29776392,0.23579501,0.1851584,0.2353965,0.19767881,0.17216791,0.19317321,0.1350739,0.083409123,0.065804821,0.037842523,-0.024440275,-0.03671692,-0.023924628,-0.11060863,-0.14659194,-0.10669079,-0.15597611,-0.18876165,-0.2071003,-0.24555722,-0.22232677,-0.2145156,-0.21403624,-0.17547664,-0.14374114,-0.082453084,-0.0614769,-0.050175636,0.010898697,0.020406173,0.037450111,0.092616925,0.12900583,0.13750976,0.26323431,0.4124292,0.47393917,0.51033329,0.48815737,0.53404301,0.55931874,0.57029314,0.63280087,0.61140977,0.6382161,0.68583251,0.6350033,0.7125076,0.7754302,0.64119753,0.54733283,0.62498915,0.68561417,0.58878787,0.58671798,0.59087585,0.62396399,0.65772486,0.66956486,0.78499647,0.72344449,0.68298528,0.71534456,0.64564935,0.6955678,0.76915119,0.7436696,0.74500453,0.76197256,0.87252508,0.8765654,0.90955626,0.97473443,0.86528282,0.88861875,0.89007742,0.82600084,0.76212824,0.60746521,0.5232983,0.53327668,0.51067379,0.46184515,0.32720429,0.13571555,0.04692802,-0.14004611,-0.15981265,0.044670587,-0.13107975,-0.47361868,-0.91060371,-1.4739837,-1.9925342,-2.4198004,-2.8116592,-3.3541421,-3.6047863,-3.1693956,-2.4120172,-1.089617,-0.33141144,0.61708765
2.0,-0.82599353,-1.2156697,-1.0720017,-1.4490416,-1.4649155,-1.5220192,-1.7422178,-1.7808399,-1.8054836,-1.705747,-1.440899,-1.0969969,-0.71885385,-0.45526178,-0.33984847,-0.28338162,-0.17547484,0.015993825,0.19937372,0.29613792,0.32399971,0.34415544,0.38946273,0.40496955,0.40149306,0.42214406,0.37667041,0.32590464,0.37805612,0.40232642,0.39264858,0.40515631,0.40334804,0.41999193,0.40768192,0.3782905,0.39675375,0.36091733,0.34766653,0.40372236,0.39083068,0.38322011,0.40939191,0.39333112,0.38422435,0.36518958,0.35571639,0.38961294,0.37559558,0.33752118,0.35999131,0.37996033,0.3720276,0.3929956,0.38734539,0.36309304,0.39283441,0.37170774,0.34101751,0.40558712,0.42418876,0.39636799,0.375823,0.33123889,0.34287695,0.37176802,0.36517284,0.37063479,0.33977698,0.33632227,0.40475828,0.43437443,0.42583446,0.41643413,0.42980166,0.47707353,0.47927914,0.47743882,0.52164186,0.5212367,0.51967531,0.598023,0.62303444,0.53999375,0.51403284,0.5756308,0.58269719,0.55581285,0.58402252,0.58523308,0.53133123,0.52565609,0.54196152,0.52130054,0.51023028,0.51917011,0.52782579,0.5233283,0.52090743,0.53502588,0.50904468,0.48471029,0.51874025,0.51574564,0.49643533,0.51062941,0.51287384,0.50697631,0.47105878,0.46871135,0.5583624,0.56066857,0.48019467,0.45881996,0.41793353,0.32323974,0.24563882,0.21803491,0.28319643,0.41344608,0.51175145,0.53895045,0.52932037,0.48242016,0.33701223,0.13600561,0.011156457,-0.040982255,-0.1076439,-0.27910689,-0.62859327,-0.97117612,-1.5122191,-2.0502311,-2.3727469,-3.3236942,-3.8152118,-4.08282,-5.2340772,-2.9129242
2.0,0.87040151,-0.10865179,-0.5425084,-1.3814298,-2.2296081,-2.7251511,-2.9053439,-2.6898467,-2.1320225,-1.5508744,-1.0600965,-0.74776176,-0.73286881,-0.69966482,-0.41211918,0.0016773918,0.37706282,0.50161249,0.41147626,0.40608107,0.50843313,0.57658852,0.56434534,0.44416328,0.39234856,0.41190823,0.3656493,0.41141318,0.43907079,0.44801856,0.46017068,0.33411361,0.36854722,0.46857038,0.38357484,0.2912521,0.24560237,0.28871983,0.38123792,0.34059174,0.21885842,0.17183382,0.18664327,0.1996756,0.15549118,0.098202294,0.11873468,0.099829543,0.0092716387,0.018079431,0.074071068,0.041476273,0.0048335526,0.0098720843,0.035175106,0.025808617,-0.086480714,-0.16789131,-0.14743163,-0.15351862,-0.28789731,-0.39169895,-0.29109031,-0.22723048,-0.26908706,-0.23963486,-0.19863117,-0.14065941,-0.048430132,-0.023716105,-0.070716285,-0.047258317,0.053158008,0.011650688,-0.0021963449,0.17059597,0.28360211,0.29281896,0.23934142,0.27003803,0.41190823,0.47252436,0.56538163,0.67352448,0.67498202,0.67735171,0.66460879,0.64768009,0.72639511,0.73809962,0.65322048,0.69923946,0.78983083,0.79304837,0.77070959,0.77387661,0.83018093,0.88793923,0.88629183,0.83689459,0.87040151,0.98116968,0.96159762,0.90730145,1.0017387,1.0875825,1.0213924,0.92649515,0.94949857,1.0297852,0.96692641,0.88203972,1.0082869,1.0530905,0.8663339,0.70148293,0.61540657,0.64213162,0.75269304,0.65098143,0.387777,0.19473345,0.029333081,-0.051944482,-0.22389057,-0.33615977,-0.087425722,-0.1515469,-0.64359623,-1.0517721,-1.4461961,-2.0075158,-2.663605,-3.2219542,-3.6005776,-3.7386626,-3.0729449,-1.6728888,-0.50552842,1.0441658
2.0,-0.22560212,-1.0069979,-1.7478347,-2.2630139,-2.6591297,-2.9433985,-2.9687215,-2.8596136,-2.6605491,-2.2708663,-1.8479658,-1.3942429,-1.0156248,-0.93871385,-0.84436743,-0.64909427,-0.49669723,-0.19970581,0.061886807,0.12866642,0.17398343,0.13523603,0.068634664,0.13304866,0.18145277,0.15161095,0.18320437,0.23195475,0.19217693,0.15434001,0.16581323,0.19619286,0.24214779,0.24126307,0.19791008,0.17624883,0.19811987,0.22842851,0.1632058,0.084926472,0.17496485,0.28253913,0.22171154,0.15776421,0.18979493,0.17545426,0.1360291,0.15584012,0.14315121,0.11016085,0.14930308,0.13510788,0.047961257,0.086559247,0.13851718,0.076248107,0.068665926,0.090562359,0.10824588,0.15798063,0.10932006,0.062173861,0.12679447,0.14586045,0.13611795,0.17159436,0.15636149,0.15060381,0.26404299,0.32784245,0.30411049,0.3412231,0.37752271,0.40957593,0.44987706,0.44190071,0.48810032,0.52245444,0.50331009,0.56853068,0.60328884,0.60324427,0.67951056,0.70260015,0.67227978,0.67106335,0.69796594,0.75167763,0.74822961,0.72510796,0.76949307,0.79607737,0.80140552,0.81624797,0.8142875,0.82687799,0.83276799,0.83463869,0.83941577,0.8117803,0.82933302,0.8317968,0.76351415,0.8089136,0.8813742,0.8338231,0.81913371,0.86398564,0.89819956,0.92478567,0.90563986,0.86462198,0.84882832,0.81987565,0.73446689,0.63446669,0.62138787,0.68098342,0.73067951,0.74267409,0.66659635,0.56760892,0.56905918,0.57047195,0.54332272,0.65595348,0.74517375,0.48719165,0.055551805,-0.34217069,-0.83556674,-1.3497631,-1.8786047,-2.5142883,-3.0108379,-3.1886405,-2.8495913,-2.0172353,-1.157351,-0.31551655
2.0,0.20895144,-0.48893806,-1.3612999,-1.9864926,-2.2191224,-2.2918193,-2.2336618,-2.0591894,-1.8701777,-1.4194574,-0.8815009,-0.76518598,-0.6343317,-0.38716251,-0.15453267,-0.11091458,-0.067296487,-0.11091458,-0.052757123,-0.096375216,-0.081835852,-0.081835852,-0.15453267,-0.11091458,-0.11091458,-0.12545395,-0.11091458,-0.096375216,-0.096375216,-0.12545395,-0.11091458,-0.12545395,-0.16907204,-0.11091458,-0.096375216,-0.12545395,-0.11091458,-0.21269013,-0.13999331,-0.16907204,-0.12545395,-0.19815077,-0.1836114,-0.1836114,-0.13999331,-0.2272295,-0.21269013,-0.24176886,-0.16907204,-0.1836114,-0.19815077,-0.16907204,-0.1836114,-0.15453267,-0.12545395,-0.081835852,-0.11091458,-0.052757123,-0.023678394,0.0199397,-0.0091390291,0.0199397,0.0199397,0.049018429,0.078097158,0.10717589,0.049018429,0.063557793,0.034479064,0.0199397,0.0054003354,0.063557793,-0.038217758,-0.038217758,-0.0091390291,-0.038217758,-0.052757123,-0.0091390291,-0.0091390291,-0.038217758,-0.023678394,0.0199397,0.078097158,0.0054003354,0.034479064,0.0054003354,-0.052757123,-0.023678394,0.049018429,0.049018429,0.049018429,0.10717589,0.063557793,0.12171525,0.12171525,0.15079398,0.16533334,0.12171525,0.092636522,0.17987271,0.17987271,0.19441207,0.20895144,0.20895144,0.2234908,0.25256953,0.29618763,0.32526635,0.48519936,0.48519936,0.63059301,0.81960475,0.90684093,0.93591966,1.1976282,1.4447974,1.546573,1.6338092,1.8082815,1.9391358,2.2008444,2.3607774,2.4334742,2.4916317,2.6370253,2.5788679,2.2590018,1.8082815,1.706506,1.2412463,0.52881746,-0.081835852,-0.54709552,-0.75064662,-0.99781582,-1.5066936,-2.3063586,-2.7134608,-3.0914843,-3.1641811
2.0,-0.34309939,-1.59714,-2.3880904,-3.1254056,-3.1452044,-3.0151639,-2.8485332,-2.5860524,-2.2582028,-1.6541507,-1.036694,-0.72101544,-0.62103268,-0.50757555,-0.22569209,0.20427808,0.47348575,0.45590471,0.47333059,0.5531364,0.47510676,0.48073695,0.57411251,0.48756066,0.41591419,0.44735558,0.44297908,0.4233852,0.43889069,0.47517564,0.45206583,0.39315196,0.39649589,0.4239949,0.41742861,0.38934881,0.32496119,0.27858924,0.30381444,0.2960078,0.31333914,0.31383207,0.18507949,0.18977863,0.23152074,0.18325966,0.1928898,0.11887623,0.1084324,0.15984516,0.072531574,0.041745458,0.021067826,-0.0035234318,0.041686714,-0.0079532384,-0.077498502,-0.074953113,-0.11141235,-0.087277651,0.000810783,-0.069845773,-0.12786486,-0.103959,-0.14945289,-0.079281418,0.044014135,0.067301629,0.087424573,0.07557675,0.066976865,0.099689396,0.086986887,0.11709169,0.20569918,0.18723036,0.20302157,0.32231575,0.36221968,0.45051505,0.57678164,0.53703892,0.52684338,0.61417984,0.59233687,0.60937687,0.66511911,0.56674479,0.5803377,0.70331002,0.73658069,0.74143652,0.69478296,0.71064218,0.72824962,0.66406634,0.71241987,0.73477213,0.66838078,0.72098594,0.76639094,0.72263116,0.7814287,0.79319306,0.71146476,0.79176427,0.8773387,0.87961637,0.87756172,0.8735711,0.91353382,0.86159235,0.84548739,0.92619846,0.83359876,0.69781455,0.60199448,0.57428476,0.69601256,0.7026167,0.54773331,0.38888138,0.32787748,0.29970436,0.1377455,0.18405929,0.47783729,0.44531198,0.082897156,-0.28115956,-0.75197004,-1.2729532,-1.7652279,-2.4290307,-2.9454166,-3.3052052,-3.1752476,-2.3114061,-1.5974234,0.048616217
2.0,0.57865023,-0.6308586,-1.4896621,-2.2489319,-2.7932169,-3.0287009,-3.0171395,-2.8129838,-2.4796598,-2.059311,-1.568102,-1.1061549,-0.84569973,-0.76326412,-0.66116589,-0.39130759,0.06823442,0.42299511,0.4026958,0.29358509,0.32206493,0.38981154,0.44859152,0.41563635,0.37873462,0.41924261,0.40884925,0.4078138,0.41997696,0.37847689,0.3469175,0.31153157,0.35895728,0.42133837,0.33899069,0.2969487,0.30561558,0.26301165,0.32126167,0.40152042,0.33986903,0.23672542,0.21202306,0.25714024,0.3006625,0.28086858,0.19366999,0.15612379,0.24400907,0.255111,0.16067831,0.16372292,0.15633644,0.073596232,0.096070823,0.12252795,0.02837449,-0.0013727943,0.01955107,-0.039747113,-0.022247175,0.049813168,0.039667181,0.039954314,0.022360123,-0.011993439,-0.028491725,-0.043811045,0.026249212,0.058360291,0.037896342,0.099083469,0.07488184,0.047206842,0.15507584,0.21580539,0.23607837,0.2848441,0.33585293,0.40729986,0.44443975,0.44630305,0.47139804,0.53840221,0.62402413,0.65130462,0.64890902,0.68465178,0.72220902,0.75311254,0.75694358,0.73739139,0.74209467,0.72234811,0.72148218,0.77707334,0.81253262,0.8558402,0.86719426,0.82772101,0.84038506,0.85853575,0.88532796,0.91680339,0.88118622,0.89187033,0.96207529,0.98428663,0.97245595,0.93357908,0.92233711,0.96397199,0.95737172,0.87106416,0.75872963,0.66163903,0.6083099,0.5984366,0.60537493,0.57171982,0.50317105,0.43183827,0.31690839,0.20435748,0.15497079,0.16646485,0.22764118,0.12912811,-0.19386617,-0.51696591,-0.9753557,-1.6330392,-2.1626866,-2.4923077,-2.8731976,-3.3281644,-3.1197654,-2.3245611,-1.5824004,0.11187342
2.0,0.62292072,-0.06038321,-0.54964224,-1.2991839,-1.826466,-2.3418615,-2.7001812,-2.6460937,-2.3834299,-2.0297764,-1.6492449,-1.1739644,-0.67661067,-0.44957753,-0.46241364,-0.35149902,0.034983878,0.34232073,0.38097383,0.45843184,0.53149516,0.46156267,0.48336579,0.52298503,0.48747029,0.4917323,0.48209722,0.48010627,0.49453777,0.4912476,0.53432171,0.55668573,0.54901886,0.54851299,0.50980477,0.47553074,0.47914494,0.51171454,0.55207703,0.50898892,0.43272507,0.41802371,0.43444822,0.43021011,0.37021873,0.32305442,0.33981639,0.34505109,0.34765035,0.33902254,0.29339326,0.28571693,0.27330994,0.20169384,0.21814672,0.27952926,0.17913347,0.098505655,0.13702588,0.079623042,0.038120695,0.095206953,0.10109561,0.085954935,0.07664743,0.090580948,0.11807303,0.09104974,0.095492163,0.15381981,0.1365795,0.11855569,0.20521204,0.25787213,0.26937405,0.34328784,0.39191581,0.44838206,0.51311579,0.49745216,0.50822144,0.54116962,0.5513186,0.59546717,0.63560902,0.69745896,0.75869159,0.72752067,0.68284358,0.68947769,0.72616569,0.7704231,0.75222536,0.67900655,0.69766438,0.81908507,0.85857742,0.77059701,0.71436399,0.76846013,0.80902237,0.74233747,0.69500539,0.71617969,0.7180712,0.73699929,0.78992056,0.79089472,0.77261747,0.78412884,0.74895761,0.61406734,0.46644489,0.38422212,0.35674436,0.36347391,0.38216062,0.36074096,0.29172199,0.19910629,0.08697628,-0.019335117,-0.048236795,-0.0047289998,-0.03047061,-0.2277913,-0.54277325,-0.94832819,-1.4661972,-2.0029201,-2.4707034,-2.8273925,-3.2665846,-3.6479895,-3.454106,-2.9609612,-2.0775836,-1.0101066,-0.61436732,0.52064566
2.0,-0.061890481,-1.1859918,-2.0182673,-2.6855688,-2.9749925,-3.0396642,-2.7666434,-2.5333227,-2.0501557,-1.3106435,-0.82608144,-0.71168537,-0.54312789,-0.13469772,0.12186513,0.25044693,0.26747326,0.21779432,0.24616302,0.24210975,0.27998442,0.31511054,0.36620019,0.25836747,0.17568993,0.33755869,0.27596128,0.2189405,0.36487228,0.33168507,0.27998442,0.20908104,0.19928085,0.29617314,0.2588112,0.19387987,0.17040347,0.16488879,0.17998841,0.15827841,0.15932269,0.14204956,0.12643053,0.088562874,0.088976922,0.10041036,0.05734738,0.0050239015,0.0053301039,0.018013956,0.018550672,0.026436487,-0.070003758,-0.045417453,-0.016435943,-0.051399179,0.016367302,0.032317201,-0.0035588462,0.049196946,0.11910211,0.11891977,0.17515655,0.27254393,0.27454949,0.31903674,0.37846321,0.38997826,0.45830557,0.48038365,0.4810873,0.50206874,0.50919153,0.58903633,0.56860992,0.49614817,0.55149626,0.51887183,0.51500433,0.56115307,0.54141817,0.56780458,0.45721676,0.49540375,0.58940252,0.57442013,0.58544048,0.54575849,0.52140759,0.54633513,0.58163875,0.59965381,0.62060391,0.63211174,0.66483089,0.64651348,0.65596413,0.65217653,0.65660513,0.7484241,0.70230048,0.6780928,0.71973819,0.72210399,0.74082294,0.7970055,0.83723486,0.84221025,0.81754814,0.82887226,0.88329307,0.85169415,0.78860358,0.81273705,0.90124477,0.8689718,0.7936592,0.67034655,0.55131086,0.58829718,0.62185932,0.61332035,0.44509414,0.3286933,0.27972438,0.10699168,0.17715795,0.30924934,0.064964986,-0.25738393,-0.66519913,-1.2774843,-1.8224328,-2.2827792,-3.0015251,-3.3925907,-3.7136869,-3.0372423,-2.3131423,-1.0276945
2.0,0.91324841,-0.10495488,-0.91471557,-1.5083468,-1.8172337,-2.1527556,-2.3747413,-2.3402024,-2.2572702,-1.9657434,-1.3853023,-0.93160171,-0.64935788,-0.38784924,-0.31679943,-0.25205121,0.092142983,0.42020695,0.50235318,0.53582054,0.56813077,0.55604439,0.57160664,0.53376478,0.4894099,0.57677331,0.59461533,0.49343898,0.45198047,0.41871475,0.43147335,0.5517975,0.51783919,0.40906411,0.46616233,0.42988385,0.35381849,0.38977433,0.40471863,0.42933537,0.35021121,0.30966581,0.38608505,0.29225605,0.21755448,0.24476404,0.23096798,0.25145755,0.27598556,0.28093084,0.26892682,0.23046127,0.24673719,0.27452599,0.21779819,0.19321455,0.21036393,0.14566323,0.089385281,0.076742105,0.081806556,0.063060883,-0.0050678686,0.027796969,0.052882479,0.012924314,0.068963353,0.070514076,0.0090012517,0.062904404,0.16643365,0.15302322,0.052193121,0.11222324,0.25128891,0.27732943,0.26648269,0.23646665,0.29513966,0.41489759,0.39738658,0.38106912,0.44992933,0.47620079,0.47394561,0.49192966,0.50959611,0.5288258,0.5426479,0.55986096,0.57350688,0.53270528,0.52801085,0.56377462,0.56143181,0.58172636,0.57323207,0.57065538,0.62770159,0.65009614,0.63973105,0.57484636,0.60398609,0.71335128,0.68065155,0.70678305,0.72657739,0.64704704,0.71659504,0.79938965,0.80517843,0.80351166,0.80342271,0.75941348,0.55406228,0.42641901,0.48799879,0.49887609,0.50141856,0.55227449,0.51177307,0.37403093,0.27086896,0.17982669,0.09460065,0.26340949,0.47394561,0.31860283,-0.014933863,-0.45215463,-1.1013172,-1.736269,-2.3613854,-3.1613352,-3.7869026,-4.2564092,-3.9619528,-2.7748237,-2.1804261,-0.4820698
2.0,-0.35918419,-1.3720408,-2.3139529,-3.1935256,-3.3708202,-3.0663419,-2.4676559,-1.8088432,-1.2754387,-1.0270901,-0.91191832,-0.58764479,-0.024286238,0.23432782,0.2843577,0.19979428,0.22786679,0.1985507,0.23738874,0.24330857,0.23440891,0.20252004,0.19653149,0.16589639,0.24362471,0.24975818,0.18608278,0.18993288,0.15128079,0.15855502,0.12202743,0.05919933,0.053408701,0.025495234,-0.043004632,-0.041383657,-0.029689241,-0.029010808,-0.04395848,-0.098676739,-0.15191744,-0.1363311,-0.11193724,-0.14519658,-0.16416311,-0.24340703,-0.20108101,-0.20098616,-0.28481887,-0.241599,-0.20023489,-0.21139351,-0.21443486,-0.13126333,-0.20566336,-0.12878711,-0.068719056,-0.072303335,0.013548825,0.1155869,0.13952703,0.19130563,0.2009846,0.31898613,0.26772247,0.34401814,0.39091009,0.35553616,0.43612031,0.43449412,0.41416252,0.37312581,0.43422117,0.41402654,0.45523493,0.41471285,0.48950815,0.4817354,0.47263885,0.46291886,0.43220489,0.47082983,0.49354777,0.51385278,0.51947471,0.50145134,0.49159594,0.5408761,0.58081903,0.59564881,0.65688856,0.58280517,0.72151362,0.74271894,0.74038228,0.75273552,0.79619322,0.92458284,0.85530936,0.92067795,0.94594095,1.0327171,1.0346024,0.98478136,1.0425601,0.97534248,1.0653921,1.0669116,1.1118091,1.1133519,0.99658961,1.0506811,0.97767142,0.87756372,0.91609919,1.0087883,0.94963312,0.85612276,0.69159129,0.4907446,0.39019584,0.39546956,0.41847629,0.25223865,0.086691839,-0.10664422,-0.20882366,-0.1055294,0.18721441,0.22663051,0.061522205,-0.47989014,-1.1038553,-1.6690469,-2.256871,-3.0585414,-3.8378983,-3.5619842,-2.6306003,-1.3283959
2.0,0.32872057,-0.95308651,-1.656561,-2.223199,-2.5041596,-2.7036064,-2.694788,-2.5617553,-2.2424743,-1.6690364,-1.090945,-0.67965609,-0.52050539,-0.44533146,-0.23209985,0.091002841,0.39742375,0.56319655,0.51740631,0.41609098,0.40697408,0.46645517,0.52131739,0.4838348,0.43924163,0.48726318,0.51826105,0.48197503,0.45394329,0.45925278,0.5471107,0.56332023,0.47578353,0.48997195,0.41259904,0.39988747,0.46852831,0.34271756,0.39115218,0.46884303,0.36124947,0.33038716,0.3310393,0.31693555,0.2803048,0.2566417,0.25666856,0.21570303,0.14483981,0.079152396,0.13374677,0.18812306,0.14105131,0.13985104,0.12058051,0.075138992,0.032264733,-0.026152946,0.007730804,0.04226816,-0.0064070011,-0.022841165,-0.026951027,-0.050581458,-0.0037398923,0.032148414,-0.019994711,-0.021462185,0.020106819,0.018590448,0.060387141,0.1409508,0.10779063,0.12764662,0.25423229,0.22374602,0.30008027,0.43036632,0.35538846,0.41145987,0.496836,0.494531,0.49286506,0.49391007,0.56000427,0.54149094,0.51665835,0.51562652,0.54542391,0.6734934,0.63666352,0.5784488,0.67328824,0.73201548,0.67882351,0.57361018,0.60274651,0.6334467,0.58664168,0.60902134,0.64048118,0.72085435,0.74362274,0.64899767,0.69843962,0.78626412,0.73696881,0.7640415,0.82917784,0.75675014,0.75402969,0.84573,0.82861899,0.80458481,0.80076151,0.67364166,0.54378105,0.50768792,0.49483813,0.52033493,0.4936643,0.35066265,0.29412075,0.25458363,0.072749257,0.0076138393,0.25347776,0.49790887,0.23588677,-0.22533615,-0.61725538,-1.2701414,-1.9197467,-2.7209355,-3.4419247,-3.8646322,-3.8579702,-2.8900822,-2.1899211,-0.3713845
2.0,1.409734,0.95254421,0.35671047,-0.32920829,-0.6420149,-1.031137,-1.3629952,-1.6276546,-1.6099526,-1.2129252,-0.86177393,-0.53958454,-0.30126523,-0.27058603,-0.2587048,0.14769631,0.49826177,0.63776409,0.61104126,0.55087971,0.5470801,0.52632549,0.50109087,0.50006297,0.52764875,0.47005124,0.50771848,0.50044044,0.45086567,0.47080449,0.46952868,0.4676304,0.38219959,0.41688523,0.46455678,0.37419585,0.35142993,0.35990341,0.43220738,0.39644666,0.36310518,0.28728241,0.29004311,0.27630394,0.24796011,0.21010234,0.17696963,0.16358007,0.08938771,0.12976492,0.11327396,0.060105605,0.065593363,-0.037228746,-0.082804005,-0.054662472,-0.079394522,-0.17272936,-0.20324841,-0.085584723,-0.0977783,-0.12996233,-0.14513709,-0.19147365,-0.13442055,-0.21241114,-0.1162982,-0.10046307,-0.10542193,-0.10689695,-0.076897266,0.012957949,0.038553329,0.12412202,0.16903365,0.26989011,0.29281712,0.2174568,0.26801477,0.28004645,0.30585008,0.39784288,0.41040061,0.37719049,0.39865136,0.50979044,0.48706911,0.4377428,0.51625724,0.54950911,0.60759967,0.54427323,0.53103605,0.59258832,0.56290614,0.54750505,0.56115338,0.61151244,0.58814377,0.5550943,0.61602521,0.62773411,0.60861333,0.58316397,0.67724898,0.64987825,0.61592658,0.65097909,0.70722804,0.75572145,0.70561166,0.72527073,0.79529587,0.7794154,0.80842913,0.9004956,0.88481453,0.83682029,0.64942836,0.56063861,0.3825131,0.3314095,0.37013814,0.29145192,0.12270449,-0.20085172,-0.27569527,-0.45523402,-0.76265115,-1.0044154,-1.1692269,-1.3217255,-1.8103206,-2.3084074,-2.9825901,-3.1502347,-3.926379,-4.2320341,-4.8666359,-3.5101248
2.0,0.39143882,-0.19805968,1.5353876,1.3334961,0.87618789,-0.15281274,-0.92836858,-1.3971143,-2.0504721,-1.8175117,-1.1904748,-1.3105356,-1.8743317,-1.5978677,-0.17363307,1.0248693,0.87338465,-0.0077239079,-0.79272858,-0.9695302,-0.021067593,0.72260395,0.45377303,0.50274308,0.97946571,1.3729882,1.2788093,0.58343744,0.44718082,1.0443771,1.3951661,1.4169383,1.3762835,1.1426776,0.41890222,-0.7633747,-1.270068,-0.13033531,1.2947836,1.3215115,0.69049721,0.46598414,0.37317392,0.32574455,0.51696406,0.36478042,-0.13935447,-0.007492598,0.3631213,0.26485863,0.54263314,1.0681647,0.62439027,0.01299525,0.43515202,1.0663102,1.0949163,0.46047069,-0.42099909,-0.18450637,1.1419411,1.8603951,1.5220569,0.71549868,-0.32624894,-1.1921632,-0.85089645,0.37327911,0.6561777,0.12891571,0.29102025,0.95434681,1.1618405,0.91699202,0.73258072,0.54859788,0.053198997,-0.39832446,-0.47358758,-0.12259641,0.67601873,1.1466048,0.58886089,-0.21440903,-0.50072908,-0.50125282,0.011006129,0.81179813,0.59710501,-0.37266801,-0.51673015,0.021542082,0.097468736,0.03258827,0.48195274,0.8939349,0.69179197,-0.024040059,-0.63284622,-0.20107241,0.68000524,0.59855954,-0.093606493,-0.31536027,-0.088681806,-0.17759973,-0.396513,-0.10397253,-0.098848902,-0.51611317,-0.11862071,0.66086442,0.41613258,-0.83239339,-1.4362929,-0.50313862,0.81089199,1.4760943,0.7751409,-0.7606388,-1.2277716,-1.0456387,-0.90146736,0.02397263,0.80660317,0.33969875,-0.43608706,-0.42518365,-0.13999953,-0.61571877,-1.6640505,-2.2368441,-2.5033878,-2.8164367,-2.3585215,-2.5227117,-2.3984792,-1.5289603,-2.7105969,0.54752336
2.0,-2.5752144,-3.21923,-2.85393,-3.1723561,-2.8196548,-2.6818208,-2.5969257,-2.0636998,-1.5300369,-0.92977969,-0.62472254,-0.65367585,-0.5431673,-0.18216606,0.23072046,0.37921502,0.34296917,0.34532608,0.34737318,0.35285708,0.31249336,0.27435522,0.38001468,0.39361844,0.28382718,0.27784046,0.3002902,0.31991318,0.35132646,0.32693668,0.28877504,0.29337415,0.3753684,0.39097241,0.31980644,0.38961075,0.4211018,0.30057221,0.26121459,0.24572015,0.24876017,0.2807912,0.2452716,0.24221213,0.2173592,0.17268966,0.24295773,0.26774483,0.21856885,0.21650382,0.1856107,0.12013434,0.11185756,0.13165389,0.14755357,0.16101588,0.12441893,0.083595597,0.1408063,0.17915199,0.10102199,0.096853232,0.13019857,0.093666563,0.17050289,0.20437764,0.10804701,0.15726845,0.23504121,0.28250894,0.36784847,0.32847501,0.30649929,0.44707929,0.49721552,0.43405076,0.50150257,0.62141725,0.57906579,0.53197364,0.59931728,0.58398887,0.51917668,0.58632373,0.65874394,0.63344009,0.60660743,0.60717391,0.61906414,0.64352829,0.65052253,0.63158824,0.64533761,0.71785104,0.76490357,0.74252751,0.70597084,0.6898251,0.69932349,0.69627705,0.67441711,0.68177273,0.66025432,0.60819038,0.61983191,0.64248123,0.66411529,0.71756465,0.7268305,0.69672484,0.7059668,0.73952438,0.70120398,0.58920038,0.52762068,0.49452839,0.45401254,0.51262236,0.58766183,0.53084858,0.47780815,0.47938216,0.36089114,0.25737499,0.38283282,0.54774616,0.51717009,0.22577252,-0.14140623,-0.48070511,-1.0541419,-1.589794,-1.991899,-2.5683532,-3.0054753,-3.2826828,-2.9347209,-1.9980853,-1.5261352,-0.2049281
2.0,0.045004998,-1.1329274,-1.5485528,-2.7602585,-3.1709537,-3.1978202,-2.9609058,-2.4276035,-1.9717634,-1.3524247,-0.79071124,-0.55327181,-0.51044209,-0.42336463,-0.12647077,0.25613869,0.47641437,0.47647634,0.50530647,0.62972689,0.59439439,0.49708161,0.53677446,0.52224644,0.51517216,0.59331347,0.55800423,0.4970956,0.51005812,0.4624575,0.42989015,0.51610595,0.54452276,0.48604534,0.49692697,0.52799371,0.49878037,0.47166075,0.4302225,0.37572535,0.39124745,0.41660629,0.33347261,0.2617324,0.30678646,0.32429158,0.24442101,0.19697901,0.21657402,0.21604928,0.19425503,0.19587183,0.19272901,0.13472548,0.072282361,0.021750443,-0.01258608,-0.029152292,-0.090274263,-0.12414875,-0.08387217,-0.1172227,-0.13997877,-0.038222735,-0.010952469,-0.092973784,-0.057854419,0.080055353,0.070779213,-0.029144213,-0.008939413,0.033172772,0.02413421,0.058369769,0.091112455,0.14372173,0.22530767,0.22570883,0.23185233,0.36028816,0.46962037,0.51394968,0.57424276,0.58611715,0.59654204,0.64767475,0.63986978,0.62678949,0.62885665,0.62788178,0.66789794,0.65551757,0.62765941,0.67797133,0.71563649,0.70418472,0.68061353,0.61672579,0.61608885,0.74385264,0.77686918,0.69820404,0.69033149,0.72803896,0.74669657,0.73127123,0.75793728,0.85384438,0.85329177,0.81698904,0.82124958,0.77571753,0.68164756,0.52920764,0.40350035,0.46091415,0.54253191,0.4702858,0.40944025,0.39433111,0.31699999,0.25100417,0.17222872,0.17552389,0.34396077,0.33974365,0.16794898,-0.14296755,-0.72219553,-1.302681,-1.8930411,-2.3612593,-2.809592,-3.463852,-3.5394393,-3.1545183,-2.0791209,-0.68695618,-0.52314885,1.1963458
2.0,-0.39518213,-0.89285071,-1.3031465,-1.6005544,-1.8039083,-2.0757216,-2.2634826,-2.2424165,-2.1272426,-1.916484,-1.5325968,-1.0219194,-0.54992222,-0.27413953,-0.22749664,-0.18677002,0.07485608,0.33916844,0.38229997,0.38016206,0.41728301,0.43117989,0.42910117,0.39492003,0.36790087,0.42668426,0.497196,0.48752575,0.4433628,0.42803701,0.47175356,0.48354119,0.41845998,0.43970221,0.47720546,0.41206483,0.38755565,0.41648018,0.4373251,0.46302713,0.43896667,0.39336316,0.4092341,0.4059488,0.39322313,0.44898184,0.44663416,0.40460992,0.4294913,0.41102794,0.36656824,0.4004352,0.4067465,0.35137237,0.34874822,0.37450184,0.38070495,0.39524869,0.37775779,0.3402251,0.3559356,0.36218514,0.40246273,0.52060979,0.4809525,0.39140654,0.45425473,0.46094437,0.44486992,0.48703091,0.46148811,0.45929375,0.52736158,0.53680382,0.50985654,0.53534787,0.57103512,0.57762347,0.57470829,0.54682259,0.51340841,0.51693115,0.53104008,0.54439674,0.5484624,0.52586282,0.54227055,0.57916067,0.56409821,0.54776061,0.52859474,0.48440972,0.49278414,0.53701044,0.54368025,0.54658524,0.541867,0.5012174,0.49024719,0.48595358,0.43711649,0.46755007,0.54012795,0.46617309,0.41464325,0.49443697,0.52569022,0.54333785,0.56121273,0.54242033,0.54456536,0.52568298,0.49387544,0.42472067,0.3625221,0.40872231,0.45210132,0.53002618,0.59237621,0.4814611,0.38386577,0.29754834,0.12286828,0.0087488968,-0.0022110733,0.045871351,0.0052446496,-0.20374401,-0.55146165,-1.0738531,-1.6323433,-2.1686832,-2.8730362,-3.5900606,-3.9320831,-3.8780256,-3.2801851,-2.382249,-1.8266679,-0.92178921
2.0,-0.26093397,-1.3159493,-2.0669761,-2.9693004,-3.2930729,-3.4106511,-3.1367997,-2.9701262,-2.5517172,-1.823661,-1.2157113,-0.92409241,-0.87656541,-0.59228474,-0.18222173,-0.070449565,0.060546769,0.12224926,0.0416369,0.085872268,-0.0079663625,-0.10450165,0.071960586,0.17988898,0.058959187,0.091192965,0.15827491,0.078758615,0.12415011,0.15175898,0.14486004,0.16649767,0.13000065,0.072764305,0.015440998,0.044520725,0.064298603,0.054693617,0.059859244,0.084157239,0.097436806,0.075138026,0.10435852,0.052158514,0.013805115,0.034710777,-0.039205751,-0.11055648,-0.10630894,-0.033474018,-0.051763628,-0.052565345,-0.0077970339,-0.12096804,-0.16215832,-0.10428658,-0.16154372,-0.1445107,-0.07706149,-0.094546224,-0.092288897,-0.077914351,0.00086734423,0.08134343,0.11113863,0.11785031,0.098046263,0.15508593,0.23826165,0.27469746,0.3711595,0.38869809,0.44148354,0.49497,0.411003,0.5569555,0.62676115,0.61190476,0.64553242,0.54231983,0.49796885,0.51410285,0.57603907,0.63222242,0.6246027,0.69538707,0.7004218,0.62444267,0.69685912,0.6714394,0.60311385,0.68857278,0.70087214,0.66741917,0.72166919,0.7833367,0.80529401,0.76584555,0.72734277,0.78964483,0.87742025,0.88585371,0.85071684,0.89575808,0.92873644,0.95695136,1.0071336,1.0035263,1.0536885,1.0734755,1.0047688,0.98707206,1.010488,1.0255198,0.99248718,0.91390718,0.88143588,0.81459366,0.77490648,0.82028272,0.77201708,0.699112,0.61884406,0.45345143,0.39392057,0.49191298,0.56518805,0.50790179,0.23438936,-0.1913497,-0.62579697,-1.1635155,-1.586122,-2.0944204,-2.7992079,-3.0156306,-2.7368725,-1.6315716,-0.87849514,0.34282701
2.0,0.86339075,-0.51965677,-1.4300216,-2.1799202,-2.5630663,-2.672148,-2.7680668,-2.6386257,-2.2396918,-1.6246665,-0.91364489,-0.50252625,-0.54134867,-0.60903666,-0.22087001,0.33031175,0.55892288,0.59247211,0.57408436,0.5162929,0.58918682,0.65167871,0.63633801,0.65924128,0.63922651,0.64705396,0.65803715,0.56317222,0.49241062,0.52288248,0.5817362,0.61405668,0.60948238,0.61768399,0.5756858,0.54356021,0.59199917,0.54030361,0.54061253,0.5553783,0.4324071,0.405528,0.40374633,0.33217387,0.38207409,0.39917671,0.39029451,0.43180651,0.35442728,0.33871525,0.24613378,0.15180657,0.20198861,0.10054059,0.05183439,0.091642869,0.071881594,-0.0072888813,-0.073346439,-0.031193439,-0.059353244,-0.14232908,-0.11760742,-0.096554654,-0.1191293,-0.13300834,-0.1937328,-0.19489501,-0.15278719,-0.2001115,-0.23317111,-0.19403825,-0.18779605,-0.23185428,-0.16669965,-0.059983826,-0.028546745,0.027438648,0.082551388,0.1579556,0.21242797,0.23128386,0.33036871,0.41689752,0.4692207,0.52849439,0.54553114,0.54623562,0.6039375,0.67300133,0.69841393,0.76791469,0.78576804,0.69936663,0.71610323,0.77466494,0.76157551,0.80219108,0.84166695,0.7936351,0.82453835,0.89693796,0.84774431,0.87068619,0.93898209,0.93192587,0.9381719,0.90383995,0.95547503,0.95492365,0.85702157,0.9286548,0.95087431,0.89211054,0.8616609,0.62044673,0.3951349,0.4476054,0.42701049,0.25359229,0.052139589,-0.10312271,-0.11913293,-0.25022502,-0.49805362,-0.47922381,-0.41071776,-0.63028583,-0.86261212,-1.1324523,-1.6721909,-2.2304182,-2.6975705,-3.1102117,-3.4167569,-3.4671299,-2.6855965,-1.2527553,-0.21957763,1.0172502
2.0,-0.60985969,-0.95511114,-1.0501997,-1.5293737,-1.5848538,-1.9808934,-2.1759108,-2.0999423,-1.847231,-1.482936,-0.99916667,-0.57533888,-0.36499441,-0.31238686,-0.23385752,-0.0078614398,0.19336137,0.31018145,0.31447992,0.29958445,0.29125691,0.2814047,0.36129919,0.32794346,0.32312993,0.36844127,0.36435239,0.32603799,0.26747869,0.3385291,0.37194737,0.35885053,0.33874581,0.32561691,0.31829335,0.2814047,0.34008353,0.35921509,0.29001493,0.26685208,0.29219328,0.29263843,0.26747869,0.28922098,0.3223661,0.31410724,0.27716243,0.24767398,0.24077536,0.25355269,0.26798321,0.26711032,0.27435366,0.24912014,0.20173801,0.22002101,0.25355269,0.22190555,0.17639659,0.17580021,0.19616921,0.22555425,0.27614317,0.2814047,0.26447418,0.29609873,0.28084422,0.30859824,0.33550621,0.31231744,0.39281275,0.41551009,0.38256631,0.4403559,0.46158955,0.4272645,0.43902981,0.43459076,0.43983661,0.50804379,0.50535581,0.45385917,0.43396925,0.47521047,0.53207281,0.46629178,0.40362088,0.42509499,0.40881293,0.41874475,0.43230722,0.40673875,0.43315346,0.41815949,0.39453159,0.36421221,0.41180492,0.49573645,0.46244278,0.47409337,0.4539516,0.42290169,0.44939151,0.44737956,0.47051522,0.50422079,0.47121051,0.45254784,0.48973595,0.47720303,0.47239355,0.54365832,0.53207281,0.52976846,0.63339482,0.56048298,0.52580125,0.49794028,0.29402085,0.26747869,0.37498502,0.49624429,0.58381344,0.57710914,0.50760435,0.44428369,0.46244278,0.54699829,0.60432329,0.48555675,0.20461065,-0.3591342,-1.0152889,-1.7100142,-2.4437945,-3.1623955,-4.4438072,-4.4827962,-4.9406595,-3.0748131
2.0,-0.56728856,-1.0319625,-1.4019591,-1.9758771,-2.2870572,-2.2108757,-2.0406238,-1.4968775,-0.97913306,-0.7958038,-0.69731039,-0.3815956,-0.039541046,0.078812428,0.017539856,-0.034913403,-0.064573539,-0.12717086,-0.083032159,0.039978139,-0.011017181,-0.0085258149,0.038041641,0.043602802,-0.010120163,-0.041383833,-0.03006475,-0.091360394,-0.12985103,-0.16704122,-0.089070499,-0.098723562,-0.043170462,-0.13865569,-0.15516806,-0.058995649,-0.059509901,-0.15090414,-0.066135584,0.038620414,0.059159135,-0.044234016,-0.057581241,-0.036646848,0.04280055,0.062668966,-0.01935851,-0.07597668,0.00036245469,0.092740922,0.1100605,0.047100704,0.085497183,0.066389642,0.081391889,0.15967489,0.21931851,0.20383048,0.19248301,0.21134106,0.2326643,0.20308749,0.1552437,0.25920783,0.31541114,0.31543314,0.28480853,0.24791102,0.30479297,0.24031281,0.23060279,0.15998686,0.24942145,0.46447417,0.53090544,0.4663593,0.3647526,0.38165132,0.35878292,0.30052605,0.33935492,0.31986357,0.2652256,0.27653846,0.49306009,0.57971379,0.5435315,0.52630688,0.43268518,0.48178713,0.55037484,0.46763099,0.41127142,0.54152265,0.50748272,0.69035285,0.70325517,0.70375931,0.67466996,0.63035225,0.65274848,0.54613969,0.47410614,0.4509623,0.49863507,0.47662571,0.51643292,0.57306049,0.56342978,0.58053177,0.58405938,0.60508193,0.73312518,0.71071797,0.7884739,0.78892035,0.89442287,1.1625978,1.3429645,1.4996696,1.5372745,1.4588002,1.3910771,1.2484745,1.0869746,1.0648573,1.0207587,0.6483969,0.10109609,-0.23204156,-0.35623043,-0.57642795,-0.8338285,-1.3618787,-1.9521471,-2.6646657,-3.5391414,-4.4123456,-4.4787591,-3.8903494
2.0,1.5920123,1.2547587,0.81332453,0.21678822,-0.26923341,-0.47654573,-0.82050008,-1.1795469,-1.3427077,-1.3923939,-1.24704,-0.9212146,-0.5823947,-0.30686918,-0.14563656,-0.14034034,-0.15945958,0.036563795,0.39851701,0.52514548,0.51949699,0.61153577,0.59917993,0.55912553,0.52822225,0.51900897,0.57958999,0.55751901,0.53379839,0.51297456,0.49958341,0.56422478,0.57081235,0.54588026,0.5418411,0.49330113,0.47761385,0.52365271,0.52282585,0.50011276,0.48928579,0.47498402,0.47621386,0.46374782,0.46378911,0.47781783,0.43024872,0.3883256,0.4072287,0.37567301,0.31932828,0.3470609,0.37145322,0.33094826,0.30397591,0.30247748,0.30000289,0.26553632,0.2172073,0.22845129,0.21656344,0.17062566,0.18039865,0.19741555,0.17989438,0.14282644,0.15536303,0.15838144,0.11210193,0.12327112,0.11218993,0.098873525,0.17217507,0.16870781,0.10685486,0.15455297,0.21561492,0.23689997,0.26579959,0.24240885,0.235605,0.30151776,0.34103606,0.35308923,0.38185962,0.40952212,0.43854368,0.43760191,0.44188396,0.48807989,0.50179663,0.52942143,0.51866538,0.53403156,0.60151508,0.51933903,0.52018465,0.59329063,0.53859234,0.55560776,0.5896421,0.57214,0.62660384,0.62213461,0.54714368,0.58128581,0.60365748,0.56585104,0.56589456,0.57968542,0.59872094,0.58226019,0.54529457,0.46548799,0.33384234,0.26957737,0.28474551,0.30990856,0.20051493,0.031965404,-0.04833776,-0.15351108,-0.27174944,-0.47865068,-0.64739952,-0.65047511,-0.789972,-0.99223082,-1.3295681,-1.8775826,-2.4684532,-3.0895163,-3.4741823,-3.9487043,-4.3362435,-4.1508027,-3.3547538,-2.118407,-1.610054,-0.38514812
2.0,0.97402452,-0.23010496,-1.1692357,-1.9179958,-2.4021072,-2.6190075,-2.6573816,-2.6468302,-2.5959061,-2.3394826,-1.8677288,-1.3357089,-0.89679685,-0.67386428,-0.63691217,-0.5453712,-0.20224959,0.213523,0.39181396,0.40017159,0.40242089,0.3803601,0.40089175,0.4426294,0.37743938,0.34532474,0.45336543,0.47986968,0.39065973,0.40146284,0.45584793,0.41743607,0.35169556,0.32482058,0.38684224,0.4198237,0.33576306,0.32248514,0.36370467,0.33596744,0.33241175,0.32678819,0.28395245,0.2902947,0.29438969,0.23412881,0.20924661,0.22816434,0.21650556,0.20492869,0.17672753,0.12389483,0.16716738,0.22278338,0.11977667,-0.00064353516,0.046408117,0.12349545,0.044229861,-0.002808641,0.11536611,0.11822562,0.01038312,0.024962067,0.047185067,0.038807191,0.05813255,0.05644692,0.082632633,0.10026715,0.078777044,0.13616578,0.19795254,0.17524878,0.16319129,0.22115854,0.29143373,0.31793061,0.33245215,0.37905246,0.42282179,0.44813428,0.48001195,0.51496093,0.54720414,0.60327716,0.63521889,0.61416989,0.62427212,0.63314229,0.65972449,0.75428001,0.73379228,0.70259229,0.79434766,0.77378119,0.74672976,0.80643429,0.78821095,0.81021966,0.8543451,0.82437366,0.86555726,0.92340014,0.89474677,0.84613202,0.8373233,0.88066911,0.91795771,0.91100619,0.88561007,0.8379362,0.79350697,0.72616707,0.63143164,0.62362935,0.65992998,0.63858047,0.599011,0.53051178,0.44994357,0.35842376,0.19007085,0.11865207,0.28348511,0.42431932,0.27985186,-0.07431353,-0.45631822,-0.94726354,-1.6114379,-2.140503,-2.5799318,-3.0594419,-3.3594508,-3.4494088,-2.8439172,-1.713075,-0.8681791,0.60406941
2.0,1.1732645,0.012086119,-1.479101,-2.9969881,-3.676697,-3.6660139,-3.2408072,-2.766155,-2.0007592,-1.4521438,-1.3528142,-1.192909,-0.71752487,-0.22400898,-0.13256064,-0.14385721,-0.18077588,-0.14635547,-0.089417964,-0.06672834,-0.070387537,-0.11269607,-0.12497522,-0.1090142,-0.16214121,-0.092512904,-0.10875177,-0.12090432,-0.12015074,-0.11428133,-0.13169438,-0.2092674,-0.20248464,-0.24000947,-0.23321051,-0.22871668,-0.21114964,-0.29301853,-0.34881529,-0.36932812,-0.31715038,-0.32213507,-0.40972948,-0.41292649,-0.41001455,-0.4154543,-0.44168553,-0.45033271,-0.42593615,-0.37846134,-0.30298327,-0.40047627,-0.32374454,-0.1801558,-0.20481438,-0.19976295,-0.065254004,-0.0058626018,0.0059928986,0.12363789,0.19396747,0.21463201,0.31020844,0.30553964,0.31477352,0.37436852,0.35790855,0.32697154,0.41657451,0.44244065,0.429763,0.43877768,0.42961008,0.4485746,0.53182423,0.50710328,0.5764497,0.54459772,0.57896542,0.49270232,0.52488532,0.63171485,0.63393685,0.59355038,0.69240389,0.69436691,0.67526375,0.70361475,0.74774125,0.80569045,0.8767225,0.79063569,0.84586735,0.99519019,0.93296999,0.96970946,1.044627,1.0195186,1.0201067,1.0867873,1.0489361,1.0558069,1.0313898,0.99437832,1.0187753,0.8976223,1.000497,0.91464731,0.86481882,0.85796013,0.90131096,0.88634676,0.8432846,0.8218335,0.8910655,0.81743837,0.82127243,0.80768906,0.67526218,0.62882779,0.45596639,0.28086427,0.40464776,0.3208398,0.23101935,0.11442694,0.13644478,0.21838163,0.43378822,0.81945833,0.88182112,0.57745504,-0.04718306,-0.71709483,-1.2109583,-2.1502408,-3.0289811,-3.1842778,-2.2762877,-1.0792831
2.0,-0.51479108,-0.91881015,-1.0545822,-1.6993425,-1.8529538,-1.8675685,-1.8979394,-1.9915439,-2.0678772,-1.9596907,-1.8106094,-1.5035202,-0.97718405,-0.57309278,-0.37050539,-0.22999583,-0.099119605,0.18160055,0.42898059,0.53228509,0.5531911,0.46731899,0.47404067,0.50002566,0.48664943,0.52471157,0.48447359,0.45916379,0.51310114,0.54222866,0.51047181,0.46733528,0.49283235,0.48075712,0.45410583,0.46775252,0.44229525,0.46312402,0.48831257,0.48448925,0.49623205,0.45550873,0.39220007,0.32131291,0.34810174,0.45351276,0.4487929,0.43653069,0.42767979,0.37246391,0.39655371,0.45174225,0.43934918,0.42110031,0.42881606,0.439273,0.41464603,0.34279631,0.32853944,0.31977278,0.3253549,0.39610154,0.34216906,0.28432544,0.29744049,0.26839585,0.30054499,0.30517647,0.23970397,0.27548773,0.35383442,0.32932716,0.27640091,0.31455203,0.38022522,0.36807419,0.33644377,0.38119789,0.42825998,0.42318153,0.42503324,0.42770489,0.42668994,0.46414852,0.50183472,0.48199228,0.46398356,0.49595224,0.51956597,0.52686148,0.51047181,0.48951687,0.54559695,0.56357086,0.51438767,0.49623205,0.52360536,0.57485251,0.50432382,0.48079052,0.5531911,0.52586114,0.56771542,0.54991054,0.45773239,0.51047181,0.52042578,0.50709685,0.53952004,0.51612721,0.51047181,0.5588751,0.5715573,0.52959792,0.46211813,0.33959466,0.23246803,0.2698855,0.38072266,0.43246438,0.439273,0.45299491,0.45166862,0.38594731,0.26981945,0.19719704,0.19882457,0.17093994,0.014645216,-0.26394159,-0.64294894,-1.1174902,-1.668706,-2.4349911,-3.0818861,-3.8468954,-4.306831,-3.7561544,-3.5508182,-1.6548124
